num_sujeto,actividad,media_a,sd_a,rms_a,maximo_a,minimo_a,rango_a,energia_a,f_dom_a,energia_f_dom_a,ppm_ecg
7,walk,10.269408194680356,0.5309496540000714,10.283119151605899,12.022938672023308,8.047387431967845,3.975551240055463,264462.09125479613,3.9984006397441023,195294.19927837478,77.12082262210797
7,walk,10.342709129443353,0.6711261035739053,10.364451856760551,12.639635668902791,7.807837527152003,4.831798141750788,268662.0775900592,0.7996801279488205,213707.95919327022,82.19178082191782
7,walk,10.373330895270941,0.5722586146197464,10.389097306561151,12.217867909182132,8.332191842035712,3.88567606714642,269941.29045583564,3.9984006397441023,135978.16791284314,83.56545961002786
7,walk,10.330574947958134,0.5704933263683474,10.346309064483336,12.17714825816057,8.828422891105774,3.3487253670547954,267722.32425578294,4.198320671731308,135379.0943260085,83.10249307479225
7,walk,10.31688621020742,0.5393692104192952,10.3309701334573,12.163420218206205,8.526399909822587,3.637020308383619,266929.0886898652,3.9984006397441023,190949.31876918915,90.9090909090909
7,walk,10.345666900960511,0.5547178716571181,10.360521826009204,12.83235107234559,9.24100058536638,3.5913504869792092,268458.3716805399,3.7984806077568973,154999.75448975211,91.74311926605505
7,walk,10.398430859099271,0.6655376091208393,10.41969901366353,12.907651951577186,8.149383141191617,4.7582688103855695,271533.88896588725,1.3994402239104358,211360.80114513793,85.71428571428572
7,walk,10.396250483517637,0.6747260661708845,10.418113905650923,12.71379389515194,8.604039653444008,4.109754241707931,271451.2804751439,1.9992003198720512,315669.69512530393,93.45794392523364
7,walk,10.361994805673842,0.628742365615211,10.381044998051571,13.000850891365618,8.738236136740097,4.26261475462552,269523.0042241805,1.9992003198720512,222283.72117313577,82.87292817679558
7,walk,10.320088163882486,0.590660764091624,10.336970559708869,12.64651668750935,8.689475110598963,3.957041576910388,267239.253841072,1.9992003198720512,217288.0086376701,79.15567282321899
7,walk,10.325751238336752,0.6416881119927382,10.345662744816705,13.016103098142079,8.518436346004087,4.497666752137992,267688.87681135035,1.9992003198720512,302591.4874849776,79.36507936507937
7,walk,10.297413908340712,0.5259069063223704,10.310829291905256,12.070591060494742,8.409208840696047,3.6613822197986945,265889.3149177154,1.9992003198720512,159514.89865413337,81.30081300813008
7,walk,10.366551070174538,0.5702554957849046,10.382217604947769,12.02613620668592,8.424033896500017,3.602102310185902,269583.89643361495,1.599360255897641,218719.8276839542,86.45533141210375
7,walk,10.363680343888998,0.5557878032157589,10.378566704602614,12.060404798210278,8.812561794913556,3.2478430032967225,269394.3317515568,1.9992003198720512,128147.36846496143,85.71428571428572
7,walk,10.37856125662424,0.543907166471223,10.392798009994845,12.21461920995042,8.70815566558266,3.50646354436776,270133.6364418586,1.9992003198720512,161954.95244579282,85.71428571428572
7,walk,10.405944607885306,0.5641748193002579,10.421221096528257,11.908081032769887,8.567468560020666,3.3406124727492212,271613.22470595676,3.9984006397441023,162352.66846875244,81.52173913043478
7,walk,10.345535618698033,0.5205124851396956,10.358616324344151,12.443670127129225,9.077980748323297,3.3656893788059286,268359.6313195778,3.9984006397441023,152743.6803519599,86.95652173913044
7,walk,10.350187230831404,0.5181258955769759,10.363142516538646,12.139610810285332,8.93899097066293,3.2006198396224015,268594.20176804543,3.9984006397441023,147192.67809695523,86.95652173913044
7,walk,10.435834273891272,0.5611746312097623,10.450905608722005,12.940988857612902,8.71424230227504,4.226746555337863,273162.79153408506,3.9984006397441023,184426.12143175857,81.9672131147541
7,walk,10.363971377074268,0.5535699539789642,10.37873883821614,12.436634922208816,8.361406149568412,4.075228772640404,269403.2678996122,3.9984006397441023,216913.36424468577,82.19178082191782
7,walk,10.298808245353964,0.5221616779517949,10.31203156875366,12.218787131566266,8.21543810964291,4.003349021923356,265951.32568250515,3.9984006397441023,235542.11004279443,88.23529411764706
7,walk,10.35532431864424,0.5244662616575287,10.368591834090623,12.438198933036661,9.188741818169209,3.249457114867452,268876.74925154884,3.7984806077568973,106730.0228593617,87.46355685131195
7,walk,10.338952494178583,0.4402275103347364,10.348316841333586,11.887097204619472,8.83866585426555,3.0484313503539227,267826.2412830195,3.7984806077568973,142544.3058849978,87.2093023255814
7,walk,10.338406708689913,0.58888164423244,10.355157951862685,12.019336040898219,8.336613237046228,3.6827228038519912,268180.4698162705,3.7984806077568973,156833.30348953966,88.49557522123894
7,walk,10.3059838474665,0.5099205479991664,10.318586049624846,12.056414249799845,8.68681589503643,3.369598354763415,266289.5183768447,3.7984806077568973,262090.51515544933,87.71929824561403
7,walk,10.313102260033919,0.49642450791261894,10.325038352590774,11.709662386736722,8.36871453231441,3.3409478544223123,266622.6488731585,3.7984806077568973,162306.2073277372,86.45533141210375
7,walk,10.316013054378965,0.5040074958689379,10.328312898301178,11.97526252058487,9.11509482007725,2.8601677005076205,266791.79236036143,3.7984806077568973,145609.21075225735,85.9598853868195
7,walk,10.332552400227954,0.5220681484504802,10.345727875631258,12.105796248579928,8.757657520789847,3.348138727790081,267692.2472768108,3.9984006397441023,125323.62083243858,87.2093023255814
7,walk,10.338218127969064,0.4698232003448707,10.348883980546788,11.753706362649861,8.45575751845632,3.2979488441935416,267855.5985066876,3.7984806077568973,151117.45964098594,84.50704225352113
7,walk,10.321689449748455,0.47609958033177524,10.332659545120478,11.717406352345657,9.003309436947452,2.714096915398205,267016.3970416987,2.5989604158336665,135121.8141344383,84.98583569405099
7,walk,10.342029836634188,0.4768791993166489,10.35301424626838,11.981427659714416,9.157481136732812,2.823946522981604,268069.4448625735,3.7984806077568973,147429.65028441383,84.74576271186442
7,walk,10.45576263477957,0.5528167082075257,10.470360853097581,12.230235677118616,8.794552434364547,3.4356832427540684,274180.76944158983,3.7984806077568973,102751.48064642878,84.50704225352113
7,walk,10.424125811864135,0.5500824093267724,10.438623884916785,12.196201158280006,9.166300856234702,3.029900302045304,272521.13639549876,1.7992802878848462,148395.57923993812,82.19178082191782
7,walk,10.277348698151673,0.4165414259886381,10.2857830838498,11.755815072593546,8.902898100646468,2.852916971947078,264599.13145367475,3.5985605757696923,145288.15922321205,84.98583569405099
7,walk,10.257211085076891,0.4342820574862465,10.266396872276108,11.864788146336759,8.86757999137322,2.9972081549635394,263602.66075244074,2.5989604158336665,84781.99137721746,85.47008547008548
7,walk,10.340341000117517,0.5808280689318559,10.356634509039527,13.834495758519454,9.016960087941227,4.817535670578227,268256.95576292486,2.5989604158336665,208375.33932565464,110.29411764705881
7,walk,10.335588936828756,0.44425770051443614,10.345128547348619,11.520064081131437,8.49973284135985,3.020331239771588,267661.2333375795,2.5989604158336665,99915.35700281255,82.19178082191782
7,walk,10.341532884521191,0.43503396499002006,10.350675402154994,12.247834628442996,9.328678741509355,2.919155886933641,267948.3396832219,3.7984806077568973,123347.51561847034,82.64462809917356
7,walk,10.27092641249632,0.3938195937805252,10.278470763232056,11.538214986193916,8.857518008765402,2.6806969774285143,264223.050037771,3.7984806077568973,82550.35377158377,80.64516129032258
7,walk,10.292185808096583,0.4678453862115322,10.302809349738965,12.143197260681694,9.101416291028347,3.041780969653347,265475.8491231686,3.7984806077568973,120767.60425570094,83.79888268156425
7,walk,10.265332459657959,0.41832332972508424,10.273849081319243,11.7729635551604,9.071900357694467,2.701063197465933,263985.4893392563,2.3990403838464616,87618.18789061248,78.53403141361257
7,walk,10.354182464204843,0.5235093288117746,10.367403095203036,12.355599733814879,8.052954852321488,4.302644881493391,268815.10039300215,3.5985605757696923,175962.64795498154,77.92207792207792
7,walk,10.396728272272135,0.46673360693437677,10.407195199766424,12.350160898860334,8.521153692553504,3.82900720630683,270882.5895270293,3.7984806077568973,106509.3176953441,82.87292817679558
7,walk,10.304255033239414,0.5422325565400233,10.318506208554478,12.478584316371995,8.173620395475584,4.304963920896411,266285.39751031925,3.398640543782487,137235.1988933683,111.52416356877323
7,walk,10.26726077387085,0.3806075730156156,10.274310098572201,11.749086383063032,9.10731317372715,2.6417732093358826,264009.18145205843,2.5989604158336665,79774.63623070891,80.64516129032258
7,walk,10.236025106018596,0.4148741700332121,10.244425885685407,11.528415784450253,8.805399552064518,2.723016232385735,262475.60257998045,2.3990403838464616,83045.67230409173,78.74015748031496
7,walk,10.248020157458251,0.43712682837201366,10.257334964785326,11.770050409804186,8.86414106737975,2.9059093424244367,263032.30144951894,4.0,57134.71118905954,85.22727272727273
7,walk,10.24713748873017,0.4228538548925299,10.255854941124296,11.739207450297194,9.096236933051342,2.6429705172458515,262956.40143345913,3.8000000000000003,76458.5634142675,76.92307692307692
7,walk,10.236709678708019,0.40167614002948154,10.244584141395631,11.49424511807732,8.952534330808689,2.541710787268631,262378.76057533716,3.0,96151.20668214782,84.03361344537815
7,walk,10.274015032923515,0.45937119509955676,10.284275491393045,11.856932762980978,9.220986876278676,2.6359458867023022,264415.80595716916,3.0,136432.40464926988,81.08108108108108
7,walk,10.32569127012738,0.4877202893007739,10.337198660089115,11.778431148345293,8.94800828931739,2.8304228590279035,267144.19034537044,2.4000000000000004,133053.99422326335,80.86253369272237
7,walk,10.298086261815584,0.43692870580214566,10.30734742730016,11.639107506766647,8.66354227426896,2.9755652324976882,265603.52746767807,3.6,79987.2922921886,83.56545961002786
7,walk,10.298282302032659,0.4720292005711425,10.309090203016192,11.683555875336323,8.896167674921358,2.7873882004149646,265693.35203481105,3.6,116917.92354805341,100.33444816053512
7,walk,10.281925507828985,0.47941511606974546,10.293091812789736,12.104530764148027,8.907987790288598,3.1965429738594295,264869.3476662978,2.4000000000000004,157985.99080620505,80.86253369272237
7,walk,10.267006801407598,0.39379756128554066,10.274553184874591,11.511214741285164,8.690014133409315,2.8212006078758485,263916.10787204147,2.4000000000000004,94051.83575955291,75.94936708860759
7,walk,10.304897075300424,0.433596882376396,10.314011575834071,11.702047048440381,9.046711037916333,2.6553360105240476,265947.086966098,2.4000000000000004,75138.70390144005,80.4289544235925
7,walk,10.312053318294293,0.4012056864972317,10.319851997767259,12.163100871363252,9.075026923604625,3.0880739477586268,266248.36313955224,2.4000000000000004,63354.947520997695,82.19178082191782
7,walk,10.285668868836895,0.399594562746558,10.293424892794974,11.648364611441881,8.947805291068969,2.7005593203729124,264886.49005902803,2.4000000000000004,116246.75926458449,78.53403141361257
7,walk,10.266234118268278,0.42866157034735425,10.275175921252714,11.846447914771977,9.039431848634944,2.8070160661370327,263948.1005317289,2.4000000000000004,160637.95633437834,160.42780748663102
7,walk,10.258976729324207,0.36075342697933077,10.265315119891785,11.416656854291123,9.200908673606197,2.215748180684926,263441.73627669725,2.6,85100.46759131586,82.64462809917356
7,walk,10.289453252036687,0.4364610770751179,10.298702359925796,11.96793250659302,8.912580090606598,3.0553524159864214,265158.17574585293,2.6,66822.06572766934,82.64462809917356
7,walk,10.26649967631861,0.35871533155581936,10.27276208340618,11.330734575061024,9.231854196139048,2.098880378921976,263824.10205566924,2.4000000000000004,120619.34562845531,69.76744186046511
7,walk,10.252541935591973,0.3833951373746975,10.259705121284043,11.626315891239809,9.252889080735024,2.3734268105047853,263153.8729392551,2.4000000000000004,107994.28122747695,73.71007371007371
7,walk,10.333952514807155,0.4294164377436609,10.342867073297557,11.907709847441524,9.105069133421823,2.8026407140197005,267437.2482397569,1.6,78938.76305828188,75.37688442211055
7,walk,10.297281313117562,0.3805566168451846,10.30430821796249,11.467676644888241,9.01048927414046,2.457187370747782,265446.9196269233,3.0,100254.97292726731,77.92207792207792
7,walk,10.244358185807627,0.38788004436719553,10.251695732295733,11.552272992644834,9.182333030431824,2.36993996221301,262743.16346892633,2.4000000000000004,117334.43695021664,72.63922518159806
7,walk,10.268816426272016,0.44361844172552867,10.278390408978646,11.95243250090595,8.794762237731252,3.1576702631746976,264113.2734984606,1.2000000000000002,107639.10864587763,78.32898172323759
7,walk,10.219353037738971,0.36405430597677907,10.225832926144935,11.563263037604354,8.709901717446826,2.8533613201575285,261419.1475835747,3.4000000000000004,66232.51264569491,70.09345794392523
7,walk,10.180137990507395,0.35527403722429185,10.186332934841714,11.51519894592974,9.263744446933613,2.251454498996127,259403.4466486025,2.4000000000000004,54641.74893171648,85.9598853868195
7,walk,10.187243077737206,0.36726905615038286,10.193858647729346,11.84676156638898,9.20789124516675,2.63887032122223,259786.885324716,2.2,70755.0316646259,79.36507936507937
7,walk,10.184491966994429,0.32783388548540987,10.189764898770921,11.902312446082764,9.450201175657462,2.452111270425302,259578.27173055985,2.2,44145.46555305766,77.720207253886
7,walk,10.162659584382945,0.3238562248635283,10.16781641894127,11.591753698800218,9.19361152605735,2.398142172742869,258461.22682322917,2.2,57122.06509763615,75.56675062972292
7,walk,10.161423802954904,0.4093201426239028,10.169661236502645,11.73777274627525,8.836092524808706,2.9016802214665436,258555.02416306123,3.2,73222.26236921194,78.32898172323759
7,walk,10.210979018610212,0.40932458257267673,10.21917668473105,11.556269333503426,8.755712511647438,2.800556821855988,261078.93028437672,3.4000000000000004,80245.81545584476,86.70520231213874
7,walk,10.278833895442347,0.37624966326203524,10.28571501810524,11.433758973751459,9.089860796970855,2.3438981767806037,264489.8335841892,3.0,61390.80026015972,87.46355685131195
7,walk,10.266675597561102,0.4854951284002376,10.27814375571042,12.561034450060959,8.418573428425704,4.142461021635254,264100.59765762277,4.0,88494.45099177568,78.125
7,walk,10.204264078978987,0.3955452738049754,10.21192434728856,12.152097299529956,9.141504187898281,3.0105931116316746,260708.49718686222,3.6,106805.76354366331,79.15567282321899
7,walk,10.19349583654583,0.41290099147940473,10.201851616424852,11.74634798207198,8.80594644852235,2.940401533549629,260194.4410088759,3.4000000000000004,117451.90343006638,75.94936708860759
7,walk,10.1871120596181,0.31388678483012755,10.191944741752774,11.299011412848657,8.932962586551033,2.3660488262976234,259689.34404735506,2.4000000000000004,53508.239353992154,79.15567282321899
7,walk,10.20858451526045,0.41229243915863545,10.216903389314233,11.856111611206373,8.782911258127648,3.0732003530787253,260962.78716645166,3.4000000000000004,82343.98118106356,82.19178082191782
7,walk,10.243670360250034,0.4525757504435284,10.253659119037975,12.532886599286154,9.062497272032324,3.47038932725383,262843.8133235766,2.4000000000000004,142529.5979884324,87.46355685131195
7,walk,10.180337876900998,0.3541331273131674,10.186492988051235,11.320120926728666,9.030354852479112,2.2897660742495543,259411.59848904243,2.2,60764.04143545344,84.74576271186442
7,walk,10.197354352989423,0.36338535141197764,10.203824375913555,12.011845920550595,9.243766069411642,2.7680798511389533,260295.0797362192,2.4000000000000004,68680.68156192514,74.44168734491315
7,walk,10.224673541548126,0.3721396666512588,10.231440835364149,11.746048764435029,8.778846086418714,2.9672026780163154,261705.95391889257,2.4000000000000004,89649.62988293722,78.74015748031496
7,walk,10.214228185646283,0.3527223473920989,10.2203141202988,11.670342327973925,9.347988079526875,2.3223542484470503,261137.05179394755,3.4000000000000004,44860.82807317744,80.0
7,walk,10.205518405925744,0.36951279231493894,10.212203044470476,11.840424427561912,9.038053659966485,2.802370767595427,260722.72755373013,2.2,73893.62214614883,72.28915662650603
7,walk,10.208846436143132,0.3513282953877629,10.214887554704847,11.874444120775077,9.278808456220965,2.5956356645541128,260859.81938815987,2.4000000000000004,66347.02876312315,71.77033492822967
7,walk,10.235913586923521,0.37054724401389594,10.242615744862627,11.519929857584819,9.230495316781393,2.289434540803425,262277.9432422695,2.4000000000000004,86466.01413108518,75.56675062972292
7,walk,10.2188645973924,0.4196114300640873,10.22747265860825,12.067386176731942,8.981241353798,3.0861448229339423,261502.99245644824,2.4000000000000004,77060.43478329603,81.74386920980926
7,walk,10.18165047998649,0.37795156016176407,10.188660203357708,12.112675417377488,9.165199830864577,2.947475586512912,259521.99184871282,2.2,58933.5275279064,74.07407407407408
7,walk,10.189936462727413,0.35976321159209085,10.196282798697245,11.49683632055609,9.264106179166207,2.232730141389883,259910.45727752335,2.8000000000000003,74187.54647481658,73.17073170731707
7,walk,10.2433685101198,0.41154374072490607,10.251629086996056,11.98675510589919,9.086763364828517,2.8999917410706733,262739.74734335893,2.8000000000000003,98183.66155957636,71.09004739336493
7,walk,10.270821043651718,0.32791321924819794,10.276052207888249,11.510786716479412,9.464291086156855,2.046495630322557,263993.12244811235,3.4000000000000004,38026.52141086168,83.33333333333334
7,walk,10.224878705584697,0.38495181780786647,10.232119681219144,11.944740996744017,9.14726189778303,2.797479098960986,261740.6829269804,3.0,73365.13435043882,80.86253369272237
7,walk,10.20704346099931,0.3939763452076797,10.2146410357079,11.771167272841648,9.229048725177371,2.542118547664277,260847.22872091935,2.2,85130.4003466049,71.09004739336493
7,walk,10.19524744353421,0.38174856883765534,10.202389137447783,11.847893736502037,9.129401687215005,2.7184920492870326,260221.86027978134,2.8000000000000003,75232.07912516249,77.92207792207792
7,walk,10.197108531228217,0.3578590499481834,10.203383471772355,11.640897245485458,9.200087472126619,2.44080977335884,260272.58568009315,2.4000000000000004,81305.56778109311,73.71007371007371
7,walk,10.202278699918335,0.3710392214701491,10.209020800578035,11.258995098629017,9.364194812632906,1.8948002859961104,260560.26426658747,3.4000000000000004,86163.31692455964,75.75757575757575
7,walk,10.218001219243188,0.398864993727282,10.225780095541028,11.852357449005826,9.032014679324766,2.8203427696810603,261416.44640590766,3.2,67575.52327720232,73.17073170731707
7,walk,10.214214087684608,0.3653925187571232,10.220744968794657,11.572024263129713,8.96685643095502,2.6051678321746934,261159.0692928532,2.4000000000000004,58422.53462015515,78.125
7,walk,10.198588134495795,0.38354775721859213,10.205794921298047,11.624577253694072,9.12632037993016,2.4982568737639124,260395.6249389825,2.4000000000000004,109172.89548257881,74.25742574257426
7,walk,10.205662403109768,0.3395414562905059,10.211306839549378,11.513605387504558,9.329878153985753,2.1837272335188054,260676.9684285698,2.4000000000000004,66517.92464610976,75.56675062972292
7,walk,10.217927310348614,0.35857970796709615,10.224214712865288,11.646511579347933,8.962400191925255,2.6841113874226785,261336.41623692756,3.0,53023.13230019639,77.12082262210797
7,walk,10.201384375581702,0.30737564337219303,10.206012207154489,11.038709230447067,8.81170303464072,2.2270061958063465,260406.7129314661,2.4000000000000004,41142.39852911884,78.74015748031496
7,walk,10.196879696463945,0.3246762488606738,10.202045287336567,11.493990522194519,9.280747958548087,2.213242563646432,260204.32011216565,2.2,47024.85573330116,78.53403141361257
7,walk,10.213452768692465,0.3951122004699154,10.221089406898443,11.927239052300411,8.81419465160649,3.113044400693921,261176.67165952892,2.4000000000000004,52077.00745705668,75.75757575757575
7,walk,10.206931137142181,0.38181463787990205,10.21406713034014,11.507511650371077,8.672630865522278,2.8348807848487994,260817.91835773713,2.8000000000000003,67893.98568840246,73.89162561576354
7,walk,10.193739295527298,0.3500967815666926,10.199747033850306,11.706914943131283,9.026076160602022,2.6808387825292606,260087.09888634528,2.8000000000000003,77024.72916551275,81.74386920980926
7,walk,10.205628065491716,0.3135324140059894,10.21044110040084,11.306207487756458,9.361179210972173,1.945028276784285,260632.7686618868,3.0,45910.25544135152,78.125
7,walk,10.199760746297668,0.32418032352842996,10.204909118984103,11.615626191819091,9.263557159088503,2.352069032730588,260350.42531681224,2.4000000000000004,43253.54656046726,74.07407407407408
7,walk,10.203343963909749,0.3758022131458054,10.21025949025476,11.726135276289675,8.769845221692922,2.956290054596753,260623.49714584352,3.0,60184.46375674126,79.57559681697613
7,walk,10.235089341390191,0.4015125795433884,10.242958639613365,12.135915356070607,9.051318275604068,3.084597080466539,262295.5042320752,3.0,75705.82366953816,80.0
7,walk,10.196792143847109,0.34678922288842723,10.20268517032784,11.672509390199165,9.152249523834248,2.520259866364917,260236.96171206905,2.4000000000000004,43743.448895070695,80.64516129032258
7,walk,10.191329519032365,0.3729523474340358,10.198148615389739,11.89177599274804,8.951249642040553,2.9405263507074864,260005.58795393913,2.8000000000000003,63731.06151935404,78.74015748031496
7,walk,10.19268393629245,0.3289804007683063,10.197989539022002,11.545085386609541,8.875546109332573,2.669539277276968,259997.4765950055,2.8000000000000003,69019.19319780696,74.44168734491315
7,walk,10.190985263789846,0.3458341692929363,10.196849223114134,11.427847185598438,9.124693422779256,2.303153762819182,259939.3351973083,2.4000000000000004,52980.48645538872,71.77033492822967
7,walk,10.2005879261189,0.31107477671238454,10.20532815974982,11.461214565403106,9.070681606629671,2.3905329587734343,260371.80712045665,2.8000000000000003,35537.53103714311,78.53403141361257
7,walk,10.194670312104408,0.36229129531985294,10.201103139032291,11.49897018582082,9.126828639051865,2.3721415467689546,260156.26313293615,2.4000000000000004,76702.11796421891,74.07407407407408
7,walk,10.209023928538425,0.35071716667371233,10.215043950148104,11.606510956444266,8.707044122140566,2.8994668343037002,260867.8072586434,3.4000000000000004,40950.2390692953,76.92307692307692
7,walk,10.245906505725225,0.37058592037357674,10.252603528610276,11.809772864889979,9.25749309424703,2.552279770642949,262789.69778717967,2.8000000000000003,50700.92020077244,86.70520231213874
7,walk,10.229704977277368,0.3540690111799145,10.235828185392005,12.006421967058916,9.425353330456126,2.58106863660279,261930.4466021635,2.2,47987.31410885862,75.37688442211055
7,walk,10.229959505560233,0.4282879068284711,10.238917357041476,11.687813052545323,8.546939043708187,3.1408740088371356,262088.57161081306,2.8000000000000003,81756.18130740187,68.18181818181819
7,walk,10.286036671057524,0.4995444135302387,10.298154941618474,12.36910509928692,8.643024734300289,3.7260803649866308,265129.9880039525,3.0,112918.67193791193,75.18796992481202
7,walk,10.27691357594307,0.37088386460855305,10.283601142911637,11.949910198626768,9.293031163825601,2.6568790348011664,264381.1311662338,2.2,58401.12137910569,74.07407407407408
7,walk,10.243930447543638,0.38647947898021234,10.251215423315879,11.46248618451438,9.0098037845928,2.4526823999215814,262718.5441380734,3.4000000000000004,87016.84925548891,76.14213197969544
7,walk,10.234508355301953,0.40049863420357007,10.242338418109512,11.699430647171472,8.83097731774556,2.868453329425911,262263.74067770515,3.0,67932.73825009077,73.52941176470588
7,walk,10.234458168526416,0.453787817613566,10.244509505944059,12.190090487810158,8.621843315647281,3.5682471721628772,262374.9375434455,3.2,90898.1008818644,74.62686567164178
7,walk,10.204986805579866,0.3902067136530184,10.212441239827394,11.727471714441421,9.044978798261157,2.682492916180264,260734.8901923182,2.8000000000000003,87862.81061451076,70.2576112412178
7,walk,10.224218114822465,0.384084719741324,10.231426983709255,11.583583516122719,9.019384897465669,2.5641986186570502,261705.24530743464,2.4000000000000004,76474.40715103674,74.62686567164178
7,walk,10.215746604503286,0.3541094495142,10.221879574337333,11.66526143599304,9.216625477241298,2.4486359587517423,261217.0550806369,2.8000000000000003,64095.23394872499,71.25890736342043
7,walk,10.212550700818824,0.37718095254881845,10.219510770167634,11.662204314273927,8.95110127967362,2.711103034600306,261096.00095393066,2.4000000000000004,84933.38412163871,70.92198581560284
7,walk,10.24545689737761,0.45631566435649495,10.255609573885177,11.935653323920024,8.686108184408576,3.249545139511447,262943.8193299133,2.4000000000000004,95680.7050433811,72.46376811594203
7,walk,10.23115780487645,0.34800712867155165,10.237072362072364,11.715297534815962,8.89840506222777,2.816892472588192,261994.12636576468,2.2,43888.766712486395,71.59904534606206
7,walk,10.21411885213713,0.40057789058926946,10.221967637737535,11.681809638838681,9.07554608823896,2.6062635505997207,261221.55596738373,2.4000000000000004,99383.56916574684,76.14213197969544
7,walk,10.223364232666134,0.4021704023478977,10.231268375419972,11.738101152561294,8.781443682145968,2.956657470415326,261697.1314246721,3.0,80150.04210353098,73.34963325183375
7,walk,10.238334526107563,0.45643055436189933,10.24849937248868,11.741061762781639,8.86289636518417,2.878165397597469,262579.3484697522,3.0,104536.81988309277,73.17073170731707
7,walk,10.263269305967281,0.42414373108106285,10.272026226225456,11.978082635520689,8.889797485831371,3.0882851496893178,263786.306980659,2.4000000000000004,127876.85841099967,75.75757575757575
7,walk,10.236627237804957,0.33949981855918987,10.242253230052523,11.538996119358337,8.923459650666,2.615536468692337,262259.37807130336,3.0,50007.38595650259,76.92307692307692
7,walk,10.233011498710633,0.3255178637014725,10.238185573019322,11.434772612870544,9.260997690629521,2.173774922241023,262051.10956895247,4.6000000000000005,47003.45493839136,75.94936708860759
7,walk,10.27482077341632,0.4196052970113684,10.28338174452672,11.915291892489487,8.38331502059778,3.5319768718917057,264369.85025916353,2.4000000000000004,75829.54554078291,81.74386920980926
7,walk,10.247830179006298,0.44310061741933743,10.25740137654985,12.004207633700752,8.858718163794574,3.1454894699061775,263035.7074991169,2.4000000000000004,159016.8454991172,84.03361344537815
7,walk,10.245320981093549,0.41628013092619104,10.25377110322737,11.933007717387838,8.7289147451367,3.2040929722511375,262849.5545934516,3.0,111052.01493410578,83.56545961002786
7,walk,10.262180852781038,0.37034284830389547,10.268858496393134,12.613681239831596,9.043974477532748,3.569706762298848,263623.6370473637,2.4000000000000004,65986.11834561572,74.81296758104737
7,walk,10.247919134353236,0.41380860650479856,10.256267140243347,11.814659989649757,8.771641172584763,3.0430188170649934,262977.53913008864,2.4000000000000004,73137.44314634285,78.125
7,walk,10.270668752851238,0.4820035547567287,10.281968251585988,12.04682213948581,8.869350412332539,3.1774717271532715,264297.17781655554,3.6,92447.40724773872,83.56545961002786
7,walk,10.28154007076215,0.5538898004979279,10.296442949884147,12.758127464284753,8.307364581198984,4.450762883085769,265041.8435505474,3.4000000000000004,97687.435292926,75.56675062972292
7,walk,10.24179550795732,0.427095249296815,10.250693274830041,12.18937916711615,9.102121595736522,3.087257571379629,262691.78153661464,2.4000000000000004,107012.9593667185,75.37688442211055
7,walk,10.244614370646804,0.39235680819915153,10.252122018911855,11.767884887559914,8.8362008597875,2.9316840277724143,262765.0147266432,1.6,60249.523914924444,76.14213197969544
7,walk,10.250866347590083,0.4142597886361902,10.259230156506225,11.86931082607459,8.990520361355058,2.8787904647195326,263129.5085104169,2.4000000000000004,77109.78034178869,74.25742574257426
7,walk,10.199681936911063,0.3404307809098698,10.205359296638902,11.424188501959598,9.108046660929407,2.3161418410301913,260373.39593373513,2.4000000000000004,87505.95381383257,79.15567282321899
7,walk,10.190925300241092,0.3025859576146516,10.195414661186415,11.760783112832685,9.477199174661257,2.2835839381714287,259866.20028383727,2.4000000000000004,86539.98821290843,79.7872340425532
7,walk,10.208673505541618,0.3503695320003088,10.214681808464615,11.450464381353697,9.229545614486712,2.220918766866985,260849.31112044485,2.4000000000000004,89328.82462963744,72.99270072992701
7,walk,10.232477180763642,0.35793557629457795,10.23873311911563,11.233501436982818,9.011780403180271,2.221721033802547,262079.13971118818,2.8000000000000003,91970.34897988834,81.9672131147541
7,walk,10.233711677244663,0.4396490855720935,10.243147401794566,12.0384972298286,8.887526429125613,3.1509708007029875,262305.1717372269,3.0,98741.93211338017,72.81553398058253
7,walk,10.215828302606715,0.3431210660549713,10.221586612727238,11.473910530925847,9.003111617379524,2.4707989135463233,261202.08220371176,3.4000000000000004,44419.8091659518,79.7872340425532
7,walk,10.228610774325494,0.3636559889515559,10.23507064717565,11.46974904700299,9.159757494677903,2.309991552325087,261891.67788169143,2.2,51476.5074383273,73.34963325183375
7,walk,10.23025680642013,0.3174282167581228,10.235178293211629,11.279939194196768,8.820075136706357,2.4598640574904103,261897.18673457624,3.4000000000000004,31585.50250740821,76.14213197969544
7,walk,10.253851232464655,0.3971243740549264,10.26153544957469,12.269836955723243,9.228564251348997,3.0412727043742454,263247.77445719513,2.4000000000000004,58178.33490471781,80.4289544235925
7,walk,10.23401501960355,0.30876681028587516,10.238669944374022,11.339562484809965,9.245812449927792,2.0937500348821736,262075.90557456986,3.4000000000000004,64160.32472955797,73.34963325183375
7,walk,10.229760372754935,0.34162748560651457,10.235460905067903,11.632116259928885,9.216275523925848,2.4158407360030374,261911.64984793362,3.0,48862.57370080784,71.09004739336493
7,walk,10.202910400918018,0.3326347496038508,10.208329063439054,11.448098628805019,9.06822517841523,2.3798734503897894,260524.95566863616,2.8000000000000003,40174.73538933141,78.32898172323759
7,walk,10.218394465113908,0.33092925319207256,10.223749596386865,11.999230071938443,9.447736231001015,2.551493840937429,261312.63952405145,2.4000000000000004,55347.55002667874,72.81553398058253
7,walk,10.250872684567073,0.37412258774434537,10.257694795556144,11.979744295503858,9.17490700683586,2.804837288667999,263050.756296949,2.4000000000000004,116748.22727335265,70.92198581560284
7,walk,10.236383876861046,0.43932647492084126,10.245803307839095,11.760117468726497,8.49106518701286,3.2690522817136376,262441.21355731634,2.8000000000000003,123230.77821682706,71.25890736342043
7,walk,10.204120996890985,0.3862554853573048,10.211425901500734,11.889101250330452,8.933998115692601,2.9551031346378505,260683.0473546002,2.8000000000000003,127273.1632410126,75.75757575757575
7,walk,10.198191198424745,0.3611989401949591,10.204583098204264,11.556251000130036,9.24392182023117,2.3123291798988657,260333.7905203903,2.4000000000000004,99364.87401951525,109.4890510948905
7,walk,10.248275843903448,0.3998176432636398,10.25606883649582,11.462165733156034,9.259394781488865,2.202770951667169,262967.36994735175,2.4000000000000004,49819.30274023792,84.74576271186442
7,walk,10.32173174266494,0.4007459119311458,10.329505274433629,11.80545505694325,9.203471678929022,2.6019833780142285,266746.6980363804,3.4000000000000004,57877.26426604725,84.03361344537815
7,walk,10.285633177176523,0.37256241197863105,10.292375677420322,11.789346567861568,9.274174674905689,2.5151718929558786,264832.4927128836,3.4000000000000004,44896.07402535528,82.19178082191782
7,walk,10.245964531686111,0.45121294414244734,10.255891032391242,11.941995354655582,8.27246564170918,3.6695297129464013,262958.25217070774,2.4000000000000004,81584.61903579005,83.10249307479225
7,walk,10.214682960940442,0.29148377273017584,10.218839307728452,11.593522853317992,9.272794488225227,2.3207283650927657,261061.69199294026,2.4000000000000004,39389.05433994765,75.18796992481202
7,walk,10.229165955191121,0.3934080978596712,10.236725265549037,11.793210390911291,8.565075497706957,3.2281348932043343,261976.36040582502,3.0,46189.306028747524,69.12442396313364
7,walk,10.219570487079766,0.32301540583047134,10.224672031767797,11.285267367495258,9.160721681199963,2.1245456862952956,261359.79539303656,2.8000000000000003,81447.82542394416,74.07407407407408
7,walk,10.229112735789231,0.4229393435967162,10.237849066028085,12.114729307558507,8.958301808187654,3.156427499370853,262033.88374693034,3.0,127641.85428274976,73.52941176470588
7,walk,10.233375329078267,0.33240695222563854,10.238770473544317,11.450357300431492,9.482832470005103,1.9675248304263881,262081.05202480726,2.4000000000000004,83147.50032876259,71.59904534606206
7,walk,10.240610413416459,0.34354500759188744,10.246368996007613,11.57944855996131,9.194495524894748,2.3849530350665624,262470.1940058651,2.4000000000000004,59996.02739768007,76.14213197969544
7,walk,10.250229233688664,0.38592015910561817,10.257488685766225,11.322366094582545,8.87537288389005,2.4469932106924954,263040.1853465553,2.4000000000000004,79411.42361800876,72.11538461538461
7,walk,10.239160504472494,0.4269248443016261,10.248053461662966,11.706000662362884,8.54237520963422,3.163625452728665,262556.4993827558,2.8000000000000003,82973.9044163778,75.0
7,walk,10.241171963516853,0.3822316607446599,10.248299653522153,11.608028197515175,8.746460888855422,2.861567308659753,262569.1144709557,2.8000000000000003,62415.20122416653,77.31958762886597
7,walk,10.252265687186592,0.43989292865818774,10.261694797012408,11.980220843114992,8.54045183637988,3.439769006735112,263255.9502675788,3.2,85844.09625565959,75.94936708860759
7,walk,10.319293773687052,0.43618530511497605,10.328504514449632,12.339297972753222,8.392758851430889,3.946539121322333,266695.0137625161,3.2,110292.19413836685,72.81553398058253
7,walk,10.31460101072417,0.4154417415553004,10.322960661279414,11.720728720151852,8.779730062907237,2.9409986572446147,266408.79203580576,2.6,95537.66166904442,72.99270072992701
7,walk,10.23291936863988,0.44453370440850015,10.242566571682831,12.25710292585414,8.844298313414097,3.412804612440043,262275.4249383865,3.0,87276.5405454813,72.99270072992701
7,walk,10.260480951657733,0.41363011737771843,10.268811557204833,12.395408334259319,9.01202488062648,3.383383453632838,263621.2269934588,2.8000000000000003,77419.17109890783,81.52173913043478
7,walk,10.290763587023138,0.4341510668346568,10.29991392963919,12.144588992231892,8.374618117781486,3.769970874450406,265220.56739493855,2.6,151935.82397306312,73.71007371007371
7,walk,10.304140575225892,0.5568905752412892,10.319172256337428,12.198613786559578,8.65647081975939,3.5421429668001885,266213.2901399102,3.8000000000000003,166540.12575834116,72.11538461538461
7,walk,10.384127879877596,0.6774046108372785,10.406190719068725,13.742811159662148,8.66300161164589,5.079809548016257,270722.01320408017,3.4000000000000004,178696.1842200425,80.0
7,walk,10.295744652690168,0.43019225507183273,10.304724610758477,11.715404038008018,9.240757152357478,2.4746468856505395,265468.3732589286,2.2,56119.82934830475,73.17073170731707
7,walk,10.213080191558639,0.3817914705875133,10.220211026213207,11.596397112248368,9.054407881184366,2.5419892310640027,261131.78355082503,2.2,79286.26695443802,83.33333333333334
7,walk,10.22747418364709,0.33850070444316266,10.233072122827311,11.444479316582209,9.148517218959475,2.295962097622734,261789.41267746364,2.8000000000000003,44070.50689277419,74.07407407407408
7,walk,10.231214316309611,0.4096118106687883,10.239407263556028,11.863406883342977,8.903072611430336,2.9603342719126413,262113.65277240987,2.8000000000000003,59196.92005326195,72.11538461538461
7,walk,10.19186756293684,0.3949541466816385,10.199514243478164,11.968808752180275,8.861732847240631,3.1070759049396433,260075.2270072849,3.4000000000000004,90672.10413890764,71.42857142857143
7,walk,10.211887004284804,0.4042336717823991,10.21988139303676,11.662413366265362,8.821539152647647,2.840874213617715,261114.93921934746,2.4000000000000004,70544.53274677254,70.75471698113208
7,walk,10.254220002771525,0.4598965307523018,10.264523763054477,11.723606993867095,8.779412249015325,2.944194744851771,263401.12020577514,2.6,122354.63743350918,73.34963325183375
7,walk,10.20724130041668,0.3898757945416893,10.214681458510952,11.7476957708346,8.9184461090691,2.8292496617655,260849.2932471186,3.0,75374.18311355943,77.31958762886597
