num_sujeto,actividad,media_a,sd_a,rms_a,maximo_a,minimo_a,rango_a,energia_a,f_dom_a,energia_f_dom_a,ppm_ecg
22,walk,10.273085794174841,0.5910982660594715,10.290070417233917,12.226437135024852,8.25923661790212,3.9672005171227323,264819.7585282731,0.7996801279488205,332077.0512678018,97.40259740259741
22,walk,10.265093521248012,0.5694522876211975,10.280870160124831,12.122877736722398,8.332239378522987,3.790638358199411,264346.42441461224,1.3994402239104358,191220.52488209013,93.16770186335404
22,walk,10.170724411255854,0.4847921140074111,10.18226715774786,11.576159028654619,8.604028034277894,2.972130994376725,259300.0897438485,1.3994402239104358,127902.26845484416,100.33444816053512
22,walk,10.180673448933392,0.41858990194788226,10.189271775787082,11.392132199304777,8.016208069228348,3.375924130076429,259656.9695614489,0.7996801279488205,104091.21788364842,99.33774834437087
22,walk,10.120006460719125,0.2988495262382219,10.124416333507721,10.99037546989603,9.208350615915757,1.782024853980273,256362.01904158905,2.199120351859256,29472.70921087204,93.75
22,walk,10.07233766043299,0.2172787793220708,10.074680001729275,10.692301807603222,9.447603451518455,1.2446983560847666,253849.44202024676,1.1995201919232308,16957.885018462897,100.67114093959732
22,walk,10.06084788153114,0.22759726348506026,10.06342088445746,10.937239725171247,9.372472004999684,1.564767720171563,253282.37218423415,1.1995201919232308,19846.425715614194,86.20689655172414
22,walk,10.050644052125218,0.24312225003610075,10.053582976086926,11.084487282630311,9.31027048616244,1.7742167964678721,252787.40117331914,1.1995201919232308,19003.788339008057,84.03361344537815
22,walk,10.062266043971633,0.2155880649152432,10.064574385911529,10.969716065040465,9.35812442524648,1.6115916397939856,253340.43958143564,2.7988804478208715,9779.059769872783,96.15384615384616
22,walk,10.02293090896539,0.23363683334087343,10.025652514926382,10.83478658669873,9.409413445805543,1.4253731408931873,251384.78458347425,0.9996001599360256,25517.17083178087,103.80622837370242
22,walk,9.991230599755578,0.21461515728678648,9.993534417148409,10.826844857270872,9.232245655953257,1.5945992013176156,249776.69609697122,1.1995201919232308,10131.307562086253,92.3076923076923
22,walk,10.072958883428091,0.30258485203422864,10.077500764153768,11.296276381409864,9.196561169864934,2.0997152115449307,253991.61015045096,0.9996001599360256,48272.90498448711,99.33774834437087
22,walk,10.10325628881275,0.2486085354642141,10.106313330227968,11.040582916165034,8.898631798894357,2.1419511172706773,255446.06039098755,0.5997600959616154,23997.315663767844,99.00990099009901
22,walk,10.168336230532322,0.2789229250810695,10.17215948501278,11.102386525148383,9.097852838522728,2.0045336866256545,258785.54429992728,1.1995201919232308,42074.68040169983,85.71428571428572
22,walk,10.107714714586647,0.2739816794130145,10.11142584889722,10.814719410052064,9.186307107383898,1.6284123026681652,255704.5726770649,0.9996001599360256,55615.31232105906,92.3076923076923
22,walk,10.189140426562135,0.43255109026212396,10.198313991422092,11.787439579662019,9.192303557868371,2.595136021793648,260118.0262773566,0.5997600959616154,92835.17492584811,98.03921568627452
22,walk,10.239254853385196,0.3652318005026399,10.245764045901995,11.42863138356956,9.072319542455482,2.3563118411140778,262544.1778916293,0.7996801279488205,80884.38332671982,94.04388714733543
22,walk,10.144844182417419,0.35765401571399635,10.151144208136605,11.444404041903164,8.935423416122307,2.5089806257808576,257717.3675646978,1.3994402239104358,73436.52431990755,96.46302250803859
22,walk,10.278484760091416,0.4381308891299466,10.287814678345002,11.498551090031686,9.184330043139184,2.314221046892502,264597.8271399272,1.0,188313.32024394968,105.63380281690142
22,walk,10.398440840660559,0.5532687374826766,10.41314341445823,11.95667642994058,8.850551890506434,3.1061245394341466,271083.88942518696,1.0,170660.3107506647,107.5268817204301
22,walk,10.264963572794297,0.5464648938431872,10.279493255090197,12.14165946031437,8.713332381376608,3.4283270789377625,264169.95395361213,1.2000000000000002,203555.33756082284,96.46302250803859
22,walk,10.13195207712709,0.33245802229254456,10.137402873441106,11.169661622687205,9.117428433269719,2.0522331894174854,256917.34254613,1.4000000000000001,78646.61167945921,100.33444816053512
22,walk,10.098513067034453,0.2568743522906131,10.101778269401738,10.97367392389288,9.237279489967314,1.7363944339255664,255114.81051039288,0.6000000000000001,40826.62632319609,86.20689655172414
22,walk,10.080583310805755,0.25806958736528174,10.083884824711838,10.973482963485194,9.22674343410235,1.746739529382845,254211.8328951342,1.2000000000000002,33259.72607138451,86.70520231213874
22,walk,10.051230379794807,0.2471768299242291,10.054267954177837,10.80260354586164,9.184702328335945,1.617901217525695,252720.7602360184,2.4000000000000004,20313.292703292227,92.87925696594426
22,walk,10.037076745677242,0.1985109647297272,10.039038820479355,10.880772322938494,9.165510821101075,1.7152615018374195,251955.7510977288,1.8,15717.682662867963,81.9672131147541
22,walk,10.072601430028156,0.19022068961839594,10.074396706771074,10.56554764772812,9.557592880215104,1.0079547675130165,253733.67251349968,1.2000000000000002,21433.753158830623,82.64462809917356
22,walk,10.14615844869754,0.280926938083317,10.15004530249198,10.980083843542442,9.174961274415121,1.8051225691273203,257558.5491065988,1.2000000000000002,57475.57120964523,98.03921568627452
22,walk,10.072149570073895,0.24619369867816548,10.0751567756871,11.153365490004859,9.399315959859175,1.754049530145684,253771.96013668424,0.6000000000000001,29770.870771658276,88.49557522123894
22,walk,10.04714692582063,0.24106101552551423,10.050037239635873,10.812701475239752,9.121470867196608,1.6912306080431438,252508.1212951696,3.6,27560.394831723763,89.02077151335311
22,walk,10.049263357071995,0.2237013626493365,10.051751902157216,10.863595089234108,9.410369464802764,1.4532256244313437,252594.29075630303,1.2000000000000002,39265.28997041286,90.09009009009009
22,walk,10.049136974824071,0.23379211916013623,10.05185509397423,10.860720659234184,9.23853267321252,1.6221879860216646,252599.47707563924,1.2000000000000002,33067.418751520774,88.23529411764706
22,walk,10.066394785244979,0.22260613079951855,10.06885483262526,10.936773263825117,9.324697642481503,1.6120756213436138,253454.59410120265,1.2000000000000002,31245.08105507297,87.2093023255814
22,walk,10.0645382257851,0.21383597365698126,10.066808691516389,10.606289019288042,9.051791391728115,1.5544976275599272,253351.59307897472,0.6000000000000001,21234.967587885545,86.95652173913044
22,walk,10.106353511047537,0.25861286262957883,10.10966048642264,11.399613749939338,9.483216886129597,1.9163968638097408,255513.08787683814,0.6000000000000001,48494.53623738453,86.20689655172414
22,walk,10.109793283801016,0.24303726772827974,10.112712975648403,10.774638181856993,9.364266365240727,1.4103718166162658,255667.40931961892,0.6000000000000001,49869.18563362668,94.9367088607595
22,walk,10.142706731626388,0.2619124526599931,10.146086464119282,11.13597122786128,9.355818837571967,1.780152390289313,257357.67634346124,0.6000000000000001,39056.1410040464,98.36065573770492
22,walk,10.181555836817623,0.2888594351490172,10.18565096867158,11.206872452518132,9.197279164458564,2.009593288059568,259368.71413900072,0.6000000000000001,55299.01833941636,98.03921568627452
22,walk,10.153935876998007,0.2842147511792664,10.157911178375466,11.074343919013016,9.407061752231952,1.6672821667810638,257957.89876941312,1.2000000000000002,49355.46132770838,104.52961672473869
22,walk,10.075224490972147,0.2246395916681652,10.077727487109946,10.793847884100098,9.38950655208533,1.4043413320147682,253901.47826112836,0.6000000000000001,19272.738894101967,100.67114093959732
22,walk,10.053578140340152,0.24206286151515716,10.05649066101484,11.021461188919627,9.125821373925193,1.8956398149944338,252832.51103769674,1.2000000000000002,19916.219982722814,89.55223880597015
22,walk,10.06485767263342,0.220352881108489,10.067268544169453,10.738155593873723,9.248450413154679,1.489705180719044,253374.73985105936,1.2000000000000002,23345.442009409035,96.15384615384616
22,walk,10.058202436046518,0.23576925554444905,10.060964225733802,10.824189307869078,9.146210754965612,1.6779785529034665,253057.50287873833,3.6,21566.7616721763,98.36065573770492
22,walk,10.048135889598125,0.2287868947584081,10.050739145041312,10.970795164344763,9.274022879381384,1.6967722849633784,252543.39340416447,3.2,16954.873403738307,98.03921568627452
22,walk,10.037636370937133,0.22619028773470626,10.04018353899006,10.777762576643823,9.320212315347295,1.4575502612965288,252013.21374151745,1.6,17093.87260687906,92.5925925925926
22,walk,10.071968013866202,0.28801398610058554,10.076083492494044,11.134962336739651,9.005604568176034,2.129357768563617,253818.64636927744,0.6000000000000001,25804.517606503683,96.46302250803859
22,walk,10.074563267218378,0.2339751376450029,10.077278774176877,10.867638331237501,9.357224371041728,1.5104139601957733,253878.86873118958,0.6000000000000001,35519.00496017382,98.03921568627452
22,walk,10.082395810683083,0.21878099777855928,10.084768280045843,11.113004216143706,9.463144457502192,1.6498597586415134,254256.37815554702,0.6000000000000001,19073.588161124535,93.45794392523364
22,walk,10.15296160977873,0.2709824893454713,10.1565757805753,11.071002748688827,9.245953461126797,1.8250492875620292,257890.07896642192,1.6,33413.33735958463,91.1854103343465
22,walk,10.195178238380828,0.2854748086037891,10.199172641952623,11.433354818683965,9.291899344264062,2.141455474419903,260057.80645088715,1.0,76445.09538217595,96.7741935483871
22,walk,10.142339357409318,0.22167544966988936,10.144760617670505,10.647558371478112,9.474812848170734,1.1727455233073787,257290.41997459612,0.6000000000000001,43410.98597147763,95.54140127388536
22,walk,10.165426372552838,0.29238845784870915,10.169628810810735,11.242187361431089,9.351989292125424,1.890198069305665,258553.37537417945,0.8,85009.4082465556,100.0
22,walk,10.117597835285139,0.2739144047375391,10.121303525043045,11.23310683879692,9.033685112445514,2.199421726351405,256101.9626151219,3.4000000000000004,32932.04310292669,95.23809523809524
22,walk,10.099164469127786,0.270349066987648,10.102780921957429,11.031908803891609,9.368804580168243,1.6631042237233657,255165.45589266747,1.2000000000000002,35648.13510028908,92.87925696594426
22,walk,10.065339055108053,0.2369151722550397,10.068125776012563,10.756651801720185,9.218854573941705,1.53779722777848,253417.89160402145,0.6000000000000001,31734.369653238056,93.75
22,walk,10.104406085145003,0.24650854537244576,10.107411364433121,11.184431123659335,9.327011873908527,1.8574192497508086,255399.41122467956,1.0,42880.52600171344,98.6842105263158
22,walk,10.125134670082506,0.2734638167290301,10.128825432071734,11.290846843637713,9.304605885116146,1.9862409585215666,256482.7615834579,1.2000000000000002,57589.51298168492,100.33444816053512
22,walk,10.086610886402367,0.22457872259537176,10.089109703144883,10.716766544863619,9.46937276104931,1.2473937838143083,254475.3365052306,0.6000000000000001,21970.2568843139,100.33444816053512
22,walk,10.120255118236775,0.24651049325043498,10.123255739855182,11.158140239333935,9.362870323528817,1.7952699158051182,256200.76693627724,0.6000000000000001,36620.87865813045,107.91366906474819
22,walk,10.113525369290134,0.31482710630050087,10.11842239954895,11.280628926347173,8.801047555493511,2.479581370853662,255956.17963923482,1.0,44460.074068631475,115.38461538461539
22,walk,10.091298969450767,0.2124073952174729,10.093533263710018,10.713743843871661,9.531826936130525,1.1819169077411367,254698.53436405148,1.4000000000000001,19272.29545885874,114.50381679389312
22,walk,10.100690059432926,0.2399146296897639,10.103537780532841,11.272809421652546,9.41523894785865,1.8575704737938956,255203.68920663622,0.6000000000000001,14893.015869832761,104.16666666666667
22,walk,10.25101160330124,0.3061841766545692,10.25558141411545,11.344046080649996,9.41042682344401,1.9336192572059865,262942.3753538757,1.0,62828.78458813685,107.91366906474819
22,walk,10.242296837620303,0.32350394129944704,10.247402473214523,11.409534575638434,9.229773841121778,2.1797607345166554,262523.1436201078,0.8,73251.1935347091,108.30324909747291
22,walk,10.262939876166236,0.3927228762979807,10.270448114219153,11.447119072851295,8.976590733089154,2.470528339762142,263705.26116716943,1.0,123125.1195737921,93.45794392523364
22,walk,10.294441395246382,0.3213936705635441,10.299455141612297,11.309219068963719,8.769969564829957,2.539249504133762,265196.94053520996,1.0,80155.67584599092,99.66777408637874
22,walk,10.15970332917217,0.21112018469424634,10.161895770006916,10.93083630095369,9.621894068962321,1.3089422319913684,258160.31410121114,1.0,17482.22761809514,94.6372239747634
22,walk,10.210985816881887,0.31073541352900075,10.215710901703572,11.327999074410142,8.979131635121782,2.3488674392883606,260901.87306796305,0.6000000000000001,71344.00042423831,106.38297872340426
22,walk,10.153366817205002,0.28401996024428183,10.157336894855938,11.477121751564706,9.004612706108334,2.4725090454563716,257928.73198900415,0.6000000000000001,42859.947914488344,106.76156583629893
22,walk,10.124709011936446,0.26352011131650577,10.128136435115579,10.981491442281774,9.253511070020226,1.7279803722615483,256447.86912078928,3.0,29096.473042168487,100.33444816053512
22,walk,10.317152151435298,0.45098812309966874,10.32700040897298,11.951501156120772,9.172432720428171,2.7790684356926008,266617.34361732024,0.6000000000000001,81190.0447783581,106.38297872340426
22,walk,10.328764040838184,0.4025722420059967,10.336603223282864,11.477731477844742,9.075943518976702,2.4017879588680398,267113.4154889542,1.0,74709.3156072518,96.46302250803859
22,walk,10.191645276404412,0.30333310132874725,10.19615651145224,11.000158434383438,9.262550843096687,1.7376075912867517,259904.01901507485,0.6000000000000001,45375.11147832729,100.0
22,walk,10.212098783050541,0.3054907363126924,10.216665249234666,11.136499447547623,8.885224476550711,2.2512749709969118,260950.6220372981,1.2000000000000002,52989.0334181327,103.09278350515464
22,walk,10.131471158836435,0.26092221458664694,10.13482910621775,11.1836439332249,9.330079376303853,1.8535645569210466,256786.90253059618,0.8,21982.231593156175,98.03921568627452
22,walk,10.145540785202948,0.34708431004740814,10.151473644525225,11.461775963287446,9.130377841575037,2.331398121712409,257631.0428887256,1.0,110983.08230702164,103.09278350515464
22,walk,10.100262864201968,0.2536771901329117,10.103446753555161,10.843999746579907,9.20109178066594,1.6429079659139667,255199.09075481084,1.2000000000000002,29415.882988788384,104.16666666666667
22,walk,10.165929403537186,0.30757852456169105,10.170579498959436,11.290388527080752,9.3365481520682,1.9538403750125521,258601.71836163488,1.0,38180.68331019428,96.15384615384616
22,walk,10.213386769498447,0.3644773546779438,10.219885513445934,11.454597400474508,9.365746658283863,2.0888507421906457,261115.1497698552,1.0,55162.72589898001,102.04081632653062
22,walk,10.329905068306987,0.6055185104296658,10.347629908613891,11.856946391855322,7.957088868245943,3.899857523609379,267683.61181410187,1.2000000000000002,364379.1012021124,102.04081632653062
22,walk,10.282025517586415,0.43817215954515826,10.291353982239755,11.59817135939749,9.05384188142987,2.5443294779676204,264779.9169694052,1.0,197997.07634396828,108.69565217391303
22,walk,10.147394227999389,0.3583840440663635,10.153718400951812,11.398919969042252,9.275585930505123,2.123334038537129,257744.99341456854,0.6000000000000001,141785.26127802083,99.66777408637874
22,walk,10.144522416956514,0.39724464393460246,10.152294088231738,11.2568112204535,9.040074779790668,2.2167364406628316,257672.68813486272,0.6000000000000001,131779.13738032922,89.82035928143712
22,walk,10.201504279314564,0.46219948320597126,10.211965162093158,11.805117739102666,8.898813628792208,2.906304110310458,260710.5811795108,0.6000000000000001,217968.45873934517,48.939641109298535
22,walk,10.190555130134056,0.412744670823733,10.198906994395506,12.112741913752421,9.214707604564081,2.89803430918834,260044.25970082395,1.2000000000000002,108706.5010219258,99.66777408637874
22,walk,10.179956171561068,0.39095543107627334,10.187457615398095,11.110661788827409,8.60900043070678,2.5016613581206286,259460.73166383166,1.2000000000000002,97154.67797816129,99.66777408637874
22,walk,10.178306048689407,0.44909716957385976,10.188205024105057,11.790686210441073,8.63110963446168,3.1595765759793935,259498.8040329988,0.8,111221.34539576081,97.7198697068404
22,walk,10.126797597076333,0.3600349642199892,10.133193124456954,11.190894005918329,9.013026785635407,2.1778672202829217,256704.0072438542,1.2000000000000002,92723.79760615481,85.47008547008548
22,walk,10.086715987378646,0.33663604028084676,10.092329656928895,11.618398190672474,8.83046207543564,2.7879361152368336,254637.79476031626,1.2000000000000002,74323.16132923216,91.74311926605505
22,walk,10.03472733433437,0.17180743487003242,10.036197420437489,10.563513836098977,9.614799160470096,0.9487146756288816,251813.1466549903,1.0,16746.113347129078,94.6372239747634
22,walk,10.055035557151141,0.22831043360504752,10.057626204000876,10.699691726443156,9.409140032494605,1.2905516939485508,252889.61214851262,1.4000000000000001,35325.1420355682,101.35135135135135
22,walk,10.109913537147222,0.2755356145799573,10.1136660630824,11.091943925947454,9.343297544036956,1.7486463819104987,255715.60308886162,1.2000000000000002,56715.45052044913,48.701298701298704
22,walk,10.265413060718085,0.5170141268969719,10.278419236104817,11.97738447152227,8.700725380445222,3.2766590910770486,264114.7549828238,1.2000000000000002,313863.5759005409,89.82035928143712
22,walk,10.161777584504245,0.36641834410520685,10.168379043626794,11.693401189213247,8.897430260383665,2.7959709288295826,258489.8309371714,1.0,95257.77498975351,104.89510489510491
22,walk,10.133876615081673,0.3542190474099184,10.1400629285421,11.534279076333156,9.294279742107838,2.2399993342253186,257052.19048698444,1.2000000000000002,109209.83949528506,107.14285714285714
22,walk,10.068437891131651,0.25885937395218855,10.071763645945445,10.76131358754461,9.199887425043261,1.5614261625013484,253601.05734947074,0.8,29922.88801733194,94.04388714733543
22,walk,10.047143514558092,0.28861545007572526,10.051286403271869,10.82893680339004,9.102862394271135,1.7260744091189046,252570.89590149483,1.0,54000.86971603282,85.47008547008548
22,walk,10.095820856130365,0.38447325811065886,10.103136112980195,11.985563353431106,8.86551364456054,3.1200497088705657,255183.39829351142,1.4000000000000001,60508.47820580334,101.01010101010101
22,walk,10.13894339951968,0.41003072016106545,10.147227759347029,11.45454462221729,8.335107994179513,3.1194366280377768,257415.5780001573,1.2000000000000002,124388.9486544655,104.89510489510491
22,walk,10.072571320208832,0.2710751623627536,10.076216817419423,10.984384045734432,9.090577821462391,1.8938062242720406,253825.363379115,1.2000000000000002,29131.277119596343,104.16666666666667
22,walk,10.00648996873451,0.21514682496871168,10.008801683289361,10.582077142493278,9.365089538099527,1.2169876043937506,250440.2778385399,1.0,30373.566549478222,94.33962264150944
22,walk,10.007755414151971,0.16077076918510447,10.009046174876824,10.553845195700772,9.508787971512733,1.0450572241880387,250452.51332704094,0.6000000000000001,13511.215626204039,94.04388714733543
22,walk,10.021504210628342,0.23946385647632096,10.02436365287217,10.612280115489849,8.7085935141089,1.903686601380949,251219.6666125617,0.6000000000000001,21783.694404075675,92.87925696594426
22,walk,10.016703718685743,0.2222425455471835,10.01916789859739,11.110959569502286,9.120232153678169,1.990727415824118,250959.3134507111,0.6000000000000001,25860.339316033238,88.49557522123894
22,walk,10.079397185814448,0.2865734046021418,10.083468604399133,11.627247754024664,9.364956904757767,2.262290849266897,254190.8477397575,0.8,43154.052933410734,91.1854103343465
22,walk,10.055572986128123,0.21804574936103993,10.057935822552485,10.669070301522884,9.375483315158563,1.2935869863643212,252905.18252646137,1.0,47401.63243371921,87.97653958944281
22,walk,10.016219837548881,0.1463213842359204,10.01728811693132,10.531973985289293,9.593355474305717,0.9386185109835754,250865.1530440336,1.0,11501.468367474969,82.41758241758242
22,walk,10.089793768000632,0.29425817623483747,10.094082004814293,11.113065976204771,9.355094717302046,1.7579712589027245,254726.22879978933,1.2000000000000002,62149.38175689111,89.02077151335311
22,walk,10.055724114729836,0.26914680503347577,10.059323958309417,11.198794409656493,9.18678605166775,2.0120083579887424,252974.99624554458,1.0,67484.08557944183,101.69491525423729
22,walk,10.06015299720018,0.2838264950448993,10.064154389881622,11.514715852458268,9.322580335105858,2.19213551735241,253218.0089584338,1.0,41738.351997574944,96.15384615384616
22,walk,10.162829150698698,0.521955778968168,10.176218610385462,13.255686479688816,9.036104541146722,4.219581938542094,258888.56301588856,1.6,205968.222687371,98.03921568627452
22,walk,10.073219319581558,0.27258987877575996,10.07690542678184,10.964431802731225,9.067171159170261,1.8972606435609638,253860.05745076324,2.4000000000000004,38512.946450946445,105.26315789473685
22,walk,10.117457618188821,0.35398995634117447,10.123645954965125,10.960319513774426,9.082796515813284,1.877522997961142,256220.51855370437,1.0,65356.028388394116,101.69491525423729
22,walk,10.212073771114248,0.4995362950615608,10.224279309670653,11.594453866355849,8.873229534639991,2.7212243317158578,261339.71850539852,1.6,161466.24149469825,102.38907849829351
22,walk,10.104878774029494,0.34475680192414987,10.110755893967758,11.880452385848805,9.299339517264425,2.5811128685843805,255568.46186850942,1.2000000000000002,32732.533453758875,102.38907849829351
22,walk,10.103420251518552,0.4731346771577827,10.114488007751815,11.440049845253682,8.656582522007662,2.78346732324602,255757.1691473882,1.0,112542.24844457788,103.44827586206897
22,walk,10.078776619721705,0.3737127082872157,10.085699949637055,10.943678913128991,8.638860870700332,2.304818042428659,254303.35868527222,0.8,97111.52588057735,111.1111111111111
22,walk,10.08436361512672,0.25982180306538083,10.087708852286136,11.016613966369096,9.450640707859085,1.5659732585100112,254404.67472123017,2.2,30225.20066769284,110.7011070110701
22,walk,10.068862231142665,0.33373231123853425,10.074389278482027,11.250907655710405,8.8620097472055,2.388897908504905,253733.298335984,0.6000000000000001,56599.01914751176,103.44827586206897
22,walk,10.053519259989576,0.2516659501418352,10.056667436439467,10.567944945226955,9.184183702571495,1.38376124265546,252841.39981785492,0.6000000000000001,26212.91511445584,89.55223880597015
22,walk,10.045137360273985,0.24742515531136922,10.048182885804284,11.045519346649437,9.389975695721915,1.6555436509275214,252414.94826642523,0.6000000000000001,31454.762032333394,96.46302250803859
22,walk,10.05885342617967,0.3692863449216493,10.065627159047285,11.414780520910181,8.9801042575441,2.4346762633660806,253292.12526237575,1.6,72309.38528669132,90.9090909090909
22,walk,10.05849020365352,0.25139828242799583,10.061630135965197,10.626520722954352,9.16498432866059,1.461536394293761,253091.00248240755,1.2000000000000002,33543.68943838443,85.9598853868195
22,walk,10.03929058687896,0.24090295732558564,10.042179370482822,10.69509539902761,9.240163154034429,1.4549322449931807,252113.41627237696,1.6,24786.90062040248,85.9598853868195
22,walk,10.010566599651085,0.19947131323737943,10.01255294794153,10.771106314552135,9.414945047820144,1.3561612667319913,250628.04133833153,1.2000000000000002,16165.319702073466,99.00990099009901
22,walk,10.009815138331556,0.1642192198480516,10.01116158437962,10.614991698147032,9.565376044973156,1.0496156531738752,250558.39067139564,1.0,12315.073318826242,99.66777408637874
22,walk,10.04070428876003,0.2520714491920485,10.043866646556777,10.93712521802799,9.281946449445991,1.6551787685819992,252198.1430345392,1.4000000000000001,40225.82013805306,84.98583569405099
22,walk,10.071245780530315,0.26111312799476105,10.074628745786848,10.726866634750532,9.336709101513124,1.3901575332374083,253745.3609135867,1.0,46273.620096309554,97.7198697068404
22,walk,10.043164328042883,0.22228907791406058,10.045623046345074,10.978921202553476,9.397528169114548,1.5813930334389283,252286.35597314822,0.6000000000000001,23502.322639030404,92.87925696594426
22,walk,10.049993015230383,0.21675469666827152,10.052329253047168,10.952139150784912,9.552540383291614,1.3995987674932984,252623.30852916953,0.4,15879.594791011652,84.98583569405099
22,walk,10.044042038234643,0.2286507158844578,10.046643255497793,10.807981766590737,9.355060353975041,1.4529214126156962,252337.6017580982,2.0,35211.53982636158,89.02077151335311
22,walk,10.057239659059004,0.23631073155882737,10.060014412737907,10.695117767287252,9.21719631437519,1.477921452912062,253009.72496123597,2.2,23401.700578938773,96.15384615384616
22,walk,10.05695153666075,0.19945362423852667,10.058928374646355,10.682043826946451,9.290947786484512,1.3910960404619388,252955.10011566392,0.6000000000000001,19855.78110661772,101.01010101010101
22,walk,10.04729791987886,0.2265770735701541,10.0498513484629,10.695701024874486,9.471156426814195,1.224544598060291,252498.78031550394,1.6,22418.00701205375,84.50704225352113
22,walk,10.11535914812826,0.20263656215647455,10.117387797614269,10.607670601032655,9.5491893973713,1.058481203661355,255903.8396182853,0.4,17353.48750245754,86.45533141210375
22,walk,10.099696988296323,0.2584257927070113,10.103001357625462,11.127541947133794,9.460314243919838,1.6672277032139569,255176.59108045482,1.0,54482.38366806145,97.7198697068404
22,walk,10.062852639186769,0.20673319796108972,10.064975149382201,10.665267557523057,9.382426828546203,1.2828407289768542,253259.31189420316,0.6000000000000001,23639.946305721332,100.0
22,walk,10.070339303266504,0.21149874519726583,10.072559134075433,10.92265713520503,9.466713219008756,1.455943916196274,253641.11877361615,0.6000000000000001,27123.16814720217,94.9367088607595
22,walk,10.02983300561561,0.2550699954776118,10.033074543670457,10.776234538903532,8.963678870484994,1.812555668418538,251656.4619971204,1.2000000000000002,41456.99091539405,98.6842105263158
22,walk,10.056511416895866,0.2851593127798075,10.060551932448263,10.924340821561566,9.067986420230001,1.856354401331565,253036.7629637212,1.2000000000000002,87753.93961224373,103.80622837370242
22,walk,10.08717906107835,0.3271852025148414,10.092481793242902,10.862197459050178,8.835775497644812,2.026421961405365,254645.47186734868,1.2000000000000002,68859.51785899156,104.16666666666667
22,walk,10.060507364380829,0.3081202096266639,10.065222725658675,10.817224039263266,8.758651630411014,2.0585724088522515,253271.7712927896,1.0,78015.23860899787,108.30324909747291
22,walk,10.072277698994178,0.295641937186797,10.07661387763851,11.227223064486205,8.93207440735673,2.2951486571294755,253845.3680975425,1.8,48534.53311465222,106.38297872340426
22,walk,10.1107719619062,0.3404101325955698,10.116498523324111,11.405151241126083,9.163868585646146,2.241282655479937,255858.85593104735,1.2000000000000002,57688.35885724174,104.16666666666667
22,walk,10.074977610805707,0.22250370686273493,10.077433301919895,10.752171413792228,9.2415920420916,1.5105793717006275,253886.65488661025,1.0,33522.93268811197,104.89510489510491
22,walk,10.059002483005353,0.15746326862759222,10.060234376802677,10.446697730555533,9.493187603902209,0.9535101266533239,253020.78929050587,1.4000000000000001,11419.628255682146,108.30324909747291
22,walk,10.178510870997588,0.3716300680519007,10.185290237147557,11.149470856330426,9.133046431087681,2.016424425242745,259350.3430373333,1.4000000000000001,127693.08528969256,112.35955056179775
22,walk,10.150706378696524,0.28243854396924856,10.154633405939249,10.830579584578455,9.327830127917455,1.5027494566610002,257791.44902254335,1.0,52475.63380546729,95.23809523809524
22,walk,10.077980337094798,0.32253158279507393,10.083138037640907,11.235332188678967,9.178721919564495,2.056610269114472,254174.1817153023,1.4000000000000001,83358.28789989342,99.00990099009901
22,walk,10.06022391665422,0.19963224046141087,10.062203652453107,10.670694884948741,9.410768127222571,1.25992675772617,253119.85585860163,3.4000000000000004,22255.821151604472,103.44827586206897
22,walk,10.070347064883713,0.3215191663636044,10.075476327783289,11.289430656053602,8.931920372007776,2.3575102840458264,253788.0580793036,1.2000000000000002,54815.68750983563,107.5268817204301
22,walk,10.109983046111832,0.35457206463709245,10.116196333264302,11.294850616327963,9.278061242932987,2.0167893733949764,255843.57063287526,1.2000000000000002,101224.12451677817,111.52416356877323
22,walk,10.1618130814807,0.39744090105401325,10.169579204130079,11.602106764665036,8.986227042144247,2.6158797225207895,258550.85297268745,1.4000000000000001,68020.81224919499,107.91366906474819
22,walk,10.137029570398797,0.4067308760825404,10.14518271618093,11.844989289244822,9.103231773913341,2.7417575153314804,257311.83086174063,1.2000000000000002,100582.63767118976,103.44827586206897
22,walk,10.09576842618093,0.3712093147703263,10.10258785420359,10.973171315595751,8.760005080676743,2.213166234919008,255155.70337975473,1.0,107949.92831758948,110.29411764705881
22,walk,10.117040983679733,0.31902937888869054,10.122067837065293,10.96863985140987,9.258589519809737,1.710050331600133,256140.64324537915,0.8,92733.73678560648,109.4890510948905
22,walk,10.135484189755147,0.42048288895899244,10.144199076237605,11.261947836617635,8.820109553198165,2.44183828341947,257261.93724584972,1.2000000000000002,142009.04743938375,92.02453987730061
22,walk,10.125193194687256,0.41505092395308746,10.13369308753268,11.437467103127645,8.753487391717377,2.6839797114102684,256729.33898076907,1.2000000000000002,137360.57983561765,95.54140127388536
22,walk,10.10745480980713,0.3244748587426989,10.11265961815564,10.8335218105935,9.185321409004594,1.6482004015889054,255664.71138168944,0.8,67382.9482732463,91.1854103343465
22,walk,10.087560140360962,0.31287212434798417,10.092408998648775,10.779149252462465,8.826714212739736,1.9524350397227295,254641.79849001695,0.8,97517.24357489886,79.15567282321899
22,walk,10.09237760168645,0.37698717671756626,10.099413257150104,11.968162992033168,9.157233934126785,2.8109290579063835,254995.37034674815,0.8,90379.13292255807,85.22727272727273
22,walk,10.086811237451794,0.3535649121825689,10.09300347190328,11.084263206567849,8.624660899514373,2.4596023070534763,254671.79770962917,0.8,79454.84996507509,91.1854103343465
22,walk,10.117098173049758,0.4037636524777083,10.125148656694087,11.049698571986042,8.642039637503178,2.407658934482864,256296.58830038516,1.0,142814.48527208442,89.02077151335311
22,walk,10.090011391706371,0.34049941513828474,10.095752738678438,11.0389894547294,9.036259595783452,2.0027298589459477,254810.558401333,0.8,60463.45352731086,91.46341463414633
22,walk,10.12396800363735,0.38592609666059574,10.131318152894798,11.145150014627978,8.474301258171637,2.6708487564563406,256609.01878793916,0.6000000000000001,100049.65689067772,99.00990099009901
22,walk,10.137701995706779,0.32614633003335897,10.1429448698975,10.992261395568796,9.067144679152983,1.925116716415813,257198.32658445003,1.0,59756.22408555976,96.46302250803859
22,walk,10.13839569805247,0.3065829363976012,10.143028286953568,10.991064271673771,9.008801237668342,1.9822630340054292,257202.55707485057,1.2000000000000002,62531.74456438133,87.71929824561403
22,walk,10.129166969174104,0.3339873605604533,10.134669527290914,11.032373266387248,8.890547349396593,2.141825916990655,256778.8160684976,1.2000000000000002,68534.07609930747,87.46355685131195
22,walk,10.141745330842497,0.3266699505634146,10.147002952939555,11.516755919749501,9.075097005177936,2.4416589145715655,257404.17231741015,1.2000000000000002,46002.97433514695,92.3076923076923
22,walk,10.101314700845279,0.18517602029352018,10.103011191122244,10.568987788087174,9.340559223126457,1.2284285649607174,255177.08781985327,2.2,16604.088625865945,89.55223880597015
22,walk,10.18430696329853,0.18969059113258166,10.186072670565776,10.759379247487718,9.687007010492124,1.0723722369955944,259390.19112511756,0.8,22074.228883291766,89.55223880597015
22,walk,10.174811231109512,0.19394626008700486,10.176658768694825,10.792188833597542,9.637428618977035,1.1547602146205076,258910.95923613315,1.0,23820.6681842901,95.23809523809524
22,walk,10.147154871604773,0.1854774666627753,10.148849201668918,10.713003931750135,9.678952915089468,1.0340510166606673,257497.8502955396,1.0,40423.13981245865,98.03921568627452
22,walk,10.127238058211175,0.22590297461159262,10.129756286740449,10.763028170241029,9.182480619463337,1.5805475507776912,256529.9060718941,1.0,28592.225722003623,89.55223880597015
22,walk,10.18637577702603,0.2560739623203798,10.189592686433123,11.028989477405592,9.447168756068717,1.5818207213368751,259569.4977885285,1.0,60993.367200510955,100.67114093959732
22,walk,10.202284172820205,0.24959898834712285,10.205335716089872,10.792065061326591,9.435424007444569,1.3566410538820222,260372.19269524896,0.8,27270.510022721595,100.0
22,walk,10.218890436229279,0.3201944854151389,10.22390362074805,11.065202733581785,9.25679768014734,1.808405053434445,261320.51311586273,1.0,63960.74138856863,98.03921568627452
22,walk,10.24477606211565,0.2907759076235063,10.248900105430861,11.2079126041917,9.35426105596941,1.85365154822229,262599.88342775183,1.6,69279.09531857062,104.16666666666667
22,walk,10.257744655118604,0.33820200601584494,10.263316240584652,11.091275345339717,9.00872883833581,2.082546507003908,263339.1506356217,1.2000000000000002,88774.8975416265,97.7198697068404
22,walk,10.225355594244093,0.3145204676749291,10.23018966510766,10.957548169497116,9.135990798117804,1.8215573713793116,261641.95146018892,1.0,113768.39571353426,93.75
22,walk,10.15404464896028,0.26748286658120285,10.157565712224551,10.815348031531075,9.208612886780498,1.6067351447505764,257940.35299539968,1.2000000000000002,80173.03460533284,103.80622837370242
22,walk,10.182380771057543,0.4149465011334671,10.19082871474964,11.902335871630461,8.751216480084105,3.151119391546356,259632.47473341454,1.4000000000000001,106402.91911426614,106.0070671378092
22,walk,10.139348923919522,0.29872696326222803,10.143746778407298,11.087669371340457,9.254992719256116,1.8326766520843414,257238.99676112103,1.0,71639.90108004172,95.23809523809524
22,walk,10.190636107449615,0.37209087512621797,10.197424209728664,11.510229863596969,9.221410912527222,2.2888189510697465,259968.65128290068,1.6,92686.35408447919,94.04388714733543
22,walk,10.229132656626756,0.42998598820292583,10.238162379144942,11.69034171141211,9.414624540219481,2.2757171711926283,262049.922254347,1.2000000000000002,123084.64088355956,102.73972602739727
22,walk,10.056765886000509,0.1785494598169235,10.05835012531681,10.697068406583423,9.363012180329678,1.334056226253745,252926.01810865168,1.6,16346.321699538368,101.35135135135135
22,walk,10.364156847109149,0.40920748935720697,10.372228831862406,11.489345172276858,9.315000181470499,2.1743449908063592,268957.82735129446,1.4000000000000001,120887.39806681432,98.6842105263158
22,walk,10.318805434549438,0.4194455605573808,10.327323457727418,11.504846299784909,9.111571371599267,2.393274928185642,266634.02450131753,1.0,137104.6127911721,96.7741935483871
22,walk,10.164503170703503,0.27883535768332,10.168325465103548,11.105791825772764,9.183071361835179,1.9227204639375852,258487.10691068324,1.8,37643.88538647262,108.69565217391303
22,walk,10.316420037070543,0.4335185032484415,10.325521076372478,11.264012525032179,8.98254414080494,2.2814683842272387,266540.9637465307,1.2000000000000002,148214.1990297176,102.04081632653062
22,walk,10.172677417957908,0.4214417557675059,10.18140009812372,11.74507875676335,9.010259731949164,2.734819024814186,259152.26989518432,0.8,143019.01308197278,103.44827586206897
22,walk,10.12896228152747,0.5380984242413709,10.143239669593315,11.707196091143134,8.464825577494002,3.2423705136491314,257213.2774870288,0.8,386065.43209307257,87.2093023255814
22,walk,10.108848553636285,0.40027206037711605,10.116766910213165,11.493208373317039,8.851894366650038,2.6413140066670007,255872.43178896006,0.8,135402.06165455483,95.54140127388536
