num_sujeto,actividad,media_a,sd_a,rms_a,maximo_a,minimo_a,rango_a,energia_a,f_dom_a,energia_f_dom_a,ppm_ecg
10,walk,10.45349445122699,0.3673684168000612,10.459945116168587,11.391208889083911,9.245939820032127,2.1452690690517837,273635.5400349809,1.3994402239104358,130027.66397580487,84.74576271186442
10,walk,10.400040080245622,0.36200759010917455,10.40633608755615,11.48371061592324,9.24110618229301,2.2426044336302304,270837.86874870077,1.3994402239104358,157380.80943232073,85.22727272727273
10,walk,10.369729662121806,0.2616783846445699,10.373029521947766,11.1415091407709,9.51917364567081,1.6223354951000903,269106.953399463,1.3994402239104358,79829.39545805343,83.79888268156425
10,walk,10.391445631191315,0.26678863188600954,10.394868446547202,11.198699505929225,9.584785324853874,1.6139141810753515,270241.2783425776,1.3994402239104358,48945.261641388526,81.08108108108108
10,walk,10.422032222862521,0.29968283878665425,10.426338261762382,11.14832613327152,9.270263973765744,1.8780621595057774,271880.0324012742,1.3994402239104358,110272.41338857579,84.26966292134831
10,walk,10.411417311560763,0.29668157993656896,10.415641852590479,11.326681948895978,9.35083314628234,1.975848802613637,271322.4735987875,1.3994402239104358,93599.89015160176,84.74576271186442
10,walk,10.388756784652328,0.26744799033628625,10.392197426832482,11.09912905910043,9.516555274108287,1.5825737849921442,270102.4161630174,1.3994402239104358,83760.45180110021,83.56545961002786
10,walk,10.370401629591763,0.26384860936788807,10.373756224839848,11.04790093423337,9.582916752460008,1.464984181773362,269144.66034922114,1.3994402239104358,77994.63589933212,83.10249307479225
10,walk,10.364805580981615,0.27726526093943693,10.36851194812239,11.085108167222488,9.652686910668814,1.432421256553674,268872.6060859102,1.3994402239104358,58225.220671100586,91.46341463414633
10,walk,10.3884406689736,0.26339091957021493,10.391777834927074,11.363872090855663,9.498247598822285,1.865624492033378,270080.60547277454,1.3994402239104358,68279.03876150807,94.04388714733543
10,walk,10.365477418790505,0.2893435023284765,10.369513407451693,11.351139995396096,9.314720898901768,2.0364190964943276,268924.54757660837,2.7988804478208715,53849.05998674878,89.55223880597015
10,walk,10.354819573752353,0.309444850283564,10.359440440158945,11.247599843535985,9.439738207757783,1.8078616357782025,268402.3335892346,2.7988804478208715,60207.895855490664,87.46355685131195
10,walk,10.340795755896202,0.23936064316040778,10.343564543928332,10.98947267658843,9.635225497606067,1.354247178982364,267580.30801350274,1.3994402239104358,55958.24056409133,91.46341463414633
10,walk,10.3675817389866,0.2433794181212536,10.370436874683271,11.151228029575012,9.636694696529364,1.514533333045648,268972.4483904482,1.3994402239104358,50974.10099195077,92.5925925925926
10,walk,10.375044195882072,0.21514774658899546,10.377273828484563,11.065055061863152,9.738173878744542,1.3268811831186103,269327.218090488,1.3994402239104358,40965.13255533139,87.2093023255814
10,walk,10.401065479273445,0.2613004606027617,10.404345906139067,11.308105516918042,9.557582993714702,1.7505225232033403,270734.2847502165,1.3994402239104358,83746.09890048999,82.64462809917356
10,walk,10.414780120219847,0.2863827405360024,10.418715239111346,11.69822617646467,9.578856828447622,2.119369348017049,271482.61771146115,1.3994402239104358,71398.95623020094,92.5925925925926
10,walk,10.379148270879451,0.24801387032770916,10.382109858514342,11.253872801577502,9.714075280746234,1.539797520831268,269578.30099076603,1.3994402239104358,51216.57602674897,91.1854103343465
10,walk,10.36081806957321,0.23562584911051218,10.36349595516045,11.085753824304202,9.747327849780321,1.3384259745238811,268612.5230799802,2.7988804478208715,37775.98289386933,86.95652173913044
10,walk,10.33549318923204,0.22543269737346278,10.337950427714118,11.112926600657525,9.74697294687173,1.3659536537857946,267289.9208337321,2.7988804478208715,50185.343503630225,86.70520231213874
10,walk,10.325413976282258,0.23243649990063867,10.328028800600881,11.059178748177196,9.702350214048343,1.3568285341288533,266777.11544400925,2.7988804478208715,35305.88866597799,90.36144578313252
10,walk,10.333852216298725,0.3095137810953467,10.338484516833184,11.290580570066059,9.387139326273996,1.903441243792063,267317.53952410346,2.7988804478208715,78867.96542952435,95.23809523809524
10,walk,10.322722683966171,0.20661054320469818,10.324789317864738,10.978927242429581,9.83531348502379,1.1436137574057916,266609.78742019285,1.3994402239104358,28017.2113550006,93.75
10,walk,10.319428301820125,0.21600472500883267,10.321687839780767,10.846729117397494,9.793332981902815,1.0533961354946797,266449.6368945573,2.5989604158336665,35844.70479011556,85.71428571428572
10,walk,10.345196423225213,0.25058010615776066,10.34822952579814,11.091273163544805,9.65304125790582,1.438231905638986,267821.7216508195,1.3994402239104358,73537.14223952784,88.75739644970413
10,walk,10.343903701542654,0.23457684790320063,10.346562138345359,11.009730422928847,9.600039565456493,1.409690857472354,267735.42155468685,1.3994402239104358,65897.79545084828,91.46341463414633
10,walk,10.337867444587173,0.21949229413603505,10.340196366897429,11.008541964451194,9.68906987380598,1.3194720906452133,267406.0719259029,1.3994402239104358,34049.446852987545,91.1854103343465
10,walk,10.35072954298002,0.1797444180938617,10.352289467055108,10.762436997336449,9.687417724679733,1.075019272656716,268031.91292146005,1.3994402239104358,18505.598709769576,87.46355685131195
10,walk,10.366876748249332,0.2132696718070821,10.369069354575593,11.221901566455461,9.837806968399745,1.3840945980557162,268901.51579927676,1.3994402239104358,42887.27216569938,89.28571428571428
10,walk,10.346862841573493,0.22615171292984684,10.349333061117337,11.176839504805374,9.741173389851875,1.4356661149534986,267878.8457196508,2.5989604158336665,32285.068822739788,91.74311926605505
10,walk,10.344895498973266,0.21462218131354344,10.347120717749641,11.036280671396584,9.723944208825952,1.3123364625706326,267764.3307763573,2.7988804478208715,29292.579971131025,90.09009009009009
10,walk,10.332920879722238,0.22314306710919757,10.335329062290711,11.137017720579966,9.776123466378777,1.3608942542011881,267154.3860914033,2.5989604158336665,21239.966804553755,85.47008547008548
10,walk,10.320081531427979,0.18142211686804705,10.32167542792739,10.772386411668316,9.811270311422724,0.9611161002455919,266448.99608233967,1.1995201919232308,20783.442641315698,91.74311926605505
10,walk,10.362511251581896,0.1980998594263159,10.364403856278681,10.795433377737561,9.666158924726082,1.1292744530114796,268552.16824011103,1.4000000000000001,36154.57430592094,93.75
10,walk,10.39752003306936,0.24319953437829267,10.400362743346747,11.200280021326812,9.674164794003119,1.526115227323693,270418.8629829877,1.4000000000000001,48360.1256060994,91.46341463414633
10,walk,10.361377658442096,0.2425443444639369,10.364214934513413,11.145179462764604,9.571762376880216,1.5734170858843886,268542.37802197714,1.4000000000000001,42481.23756838569,93.75
10,walk,10.35435837582969,0.2149238814591242,10.356587815155432,11.10463140424142,9.855802150560637,1.2488292536807837,268147.27793256496,2.6,30559.203738670967,94.6372239747634
10,walk,10.390100117185694,0.23339171551409565,10.392720064994325,10.917287043028848,9.860368799563792,1.0569182434650557,270021.57587333914,1.4000000000000001,40046.822580369226,97.0873786407767
10,walk,10.421324589661438,0.26598363164436895,10.42471703196149,11.057864358940678,9.586143886855762,1.4717204720849164,271686.81299117,1.4000000000000001,66764.8842448795,97.40259740259741
10,walk,10.386208628393454,0.31215837492098525,10.390896667102774,11.477771742285302,9.425874193321208,2.051897548964094,269926.83386601886,2.8000000000000003,65377.25985351091,99.66777408637874
10,walk,10.357049568855984,0.22581800380686984,10.359510082290326,11.045496042324354,9.810512521302611,1.2349835210217428,268298.62286268733,2.6,35190.05016356979,97.40259740259741
10,walk,10.333465866352066,0.21518091652070442,10.335705158177026,10.932334031676437,9.789200607183936,1.1431334244925004,267067.002791918,2.6,38686.92857437745,92.02453987730061
10,walk,10.326847757336505,0.20400383427196997,10.32886177275008,10.994890186146975,9.76278704415519,1.2321031419917858,266713.4638014448,1.2000000000000002,23450.44279156463,92.87925696594426
10,walk,10.324900996814206,0.19784866723906622,10.326795680728134,11.076013550899786,9.694258652234115,1.3817548986656707,266606.7725787631,2.6,32942.68971634824,92.5925925925926
10,walk,10.324522074451137,0.17600733528221826,10.326021608367334,10.924219919903795,9.75174672949385,1.1724731904099457,266566.8056411728,2.6,18819.329436399363,89.82035928143712
10,walk,10.330413791449702,0.18335895006348593,10.332040270872971,10.86454265225761,9.838907798655997,1.0256348536016127,266877.64039735205,2.6,16718.27645942725,88.49557522123894
10,walk,10.322440954893263,0.16959672224164074,10.32383353266768,10.978341017711182,9.855766573476519,1.1225744442346635,266453.847025584,2.6,16310.788680737187,91.46341463414633
10,walk,10.32300612754988,0.1723468810360502,10.324444153340956,10.910780351120966,9.83572556800418,1.0750547831167854,266485.3676886406,2.6,23720.500392989175,92.87925696594426
10,walk,10.328221728564898,0.2263413778303493,10.330700557152475,11.20189148767544,9.734199120326569,1.4676923673488709,266808.4350038762,2.6,53076.16820501992,95.23809523809524
10,walk,10.319034730606713,0.20275558584046785,10.321025683289722,10.979015782800236,9.73590471969138,1.2431110631088558,266308.92788781517,2.8000000000000003,33733.56816814127,96.46302250803859
10,walk,10.311570488237166,0.24870188013296735,10.314568038362792,11.174097756825754,9.514670171580468,1.659427585245286,265975.7845450381,2.6,37723.45343127021,97.0873786407767
10,walk,10.309064950136854,0.199401226502242,10.310992439669961,10.999673246207452,9.606316245542342,1.3933570006651106,265791.4127273278,2.6,28763.12299793657,90.9090909090909
10,walk,10.308348118153887,0.18640967416661586,10.310032763878251,10.835930567951598,9.643305162554203,1.1926254053973953,265741.9389806075,2.6,19594.02800891465,88.75739644970413
10,walk,10.316186416236526,0.14882128015835955,10.317259378772137,10.72516534822189,9.905945529672017,0.8192198185498718,266114.6027221541,2.4000000000000004,7243.594286368267,96.7741935483871
10,walk,10.303519421305957,0.11498099702849846,10.304160703650485,10.625402176966219,10.009579646888314,0.6158225300779048,265439.31951663713,2.4000000000000004,7841.008355215265,96.15384615384616
10,walk,10.314929056205932,0.1457951426666548,10.315958954731117,10.844138369843586,9.929868882222848,0.9142694876207376,266047.5228892428,1.2000000000000002,17331.606934143263,85.9598853868195
10,walk,10.331120198923427,0.14175823156943318,10.33209233033962,10.69214691059364,9.835515474719763,0.8566314358738776,266880.32980665704,1.2000000000000002,17020.920099528154,80.21390374331551
10,walk,10.327320785089526,0.19998438283319445,10.329256137496929,10.867026219896369,9.746730864597827,1.1202953552985413,266733.83088504494,1.2000000000000002,30799.475595231037,86.45533141210375
10,walk,10.324484303495412,0.14658501133224816,10.325524427543822,10.853527162960606,9.808622275617255,1.0449048873433515,266541.1367595105,2.4000000000000004,13626.119363710231,89.55223880597015
10,walk,10.324915221085133,0.1548930799803649,10.326076534292914,10.88918420141003,9.913629176336478,0.9755550250735521,266569.64148018695,2.4000000000000004,12163.580677841725,83.56545961002786
10,walk,10.321506642646503,0.1674717750853435,10.322864667858818,10.866831472626206,9.81696157305396,1.0498698995722453,266403.83737731987,1.2000000000000002,18777.932647386493,83.79888268156425
10,walk,10.337079887335923,0.1735880266883317,10.33853671208132,10.893112815962887,9.81494673843432,1.0781660775285662,267213.35336763307,1.2000000000000002,19987.324657807516,83.79888268156425
10,walk,10.339711049618963,0.15392331349938854,10.340856226594418,10.782535884102794,9.805386017757034,0.9771498663457603,267333.26874774136,2.6,12813.853057083728,81.74386920980926
10,walk,10.328951245732664,0.1606350701067785,10.33019976288069,10.672771735844186,9.807857521439207,0.8649142144049797,266782.56785255065,1.2000000000000002,17077.45857819504,89.02077151335311
10,walk,10.335470041401557,0.15050946677681484,10.336565436113615,10.87206173729793,9.832390368198856,1.0396713690990733,267111.46253764664,1.2000000000000002,12713.690688799888,88.75739644970413
10,walk,10.338016297029624,0.1492236866499775,10.339092791885758,10.763226442815663,9.855665155815826,0.9075612869998366,267242.09939806006,1.2000000000000002,14605.65799362327,80.86253369272237
10,walk,10.33590338132672,0.15327290530709248,10.337039319582225,10.732141653712343,9.638756031523126,1.093385622189217,267135.9547364724,1.2000000000000002,18494.27225691141,83.79888268156425
10,walk,10.341169836329525,0.16662328514474237,10.342511580734943,10.845232323382065,9.895746986974485,0.9494853364075801,267418.864494091,1.2000000000000002,21426.25979945076,93.75
10,walk,10.352739913401077,0.16794082017492737,10.354101436240674,11.042794547422936,9.766117423080491,1.276677124342445,268018.5413799029,1.2000000000000002,23423.76440023994,90.36144578313252
10,walk,10.349246474797685,0.1373883700115962,10.350157999281995,10.715476153051446,9.993485807359564,0.7219903456918821,267814.42652525264,1.2000000000000002,20216.967784686316,79.36507936507937
10,walk,10.344108265345879,0.16815302716116173,10.345474369769816,10.731461201877124,9.854154659516869,0.8773065423602553,267572.09983891045,2.4000000000000004,19587.78307025295,76.53061224489795
10,walk,10.341095300978784,0.161920082060908,10.342362382437338,10.838723769318326,9.853890968940327,0.9848328003779994,267411.14912413736,1.2000000000000002,15304.950428143009,81.30081300813008
10,walk,10.324439392257485,0.15894701238514777,10.325662342507774,10.801646931266927,9.918973712206077,0.88267321906085,266548.2570287079,2.4000000000000004,14168.6707120435,89.82035928143712
10,walk,10.32203132471043,0.17848656910841332,10.323573769808267,10.948845342434511,9.81171342852911,1.1371319139054012,266440.4384516832,2.4000000000000004,19748.2828640324,94.9367088607595
10,walk,10.344946179452782,0.16033796878536558,10.34618815973802,10.856725091897374,9.85188483843448,1.0048402534628949,267609.023591758,1.2000000000000002,20486.375784391923,97.0873786407767
10,walk,10.350675286937223,0.1553207832605918,10.35184011620675,10.94326059855949,9.95908693525927,0.9841736633002203,267901.4844787684,1.2000000000000002,22894.81726305623,96.15384615384616
10,walk,10.356004917431804,0.19221510829617927,10.35778787768266,10.943658692499644,9.651132105662501,1.292526586837143,268209.4242976747,1.2000000000000002,18983.92665105776,99.33774834437087
10,walk,10.368088248605929,0.1684626310190943,10.369456217037952,10.820767750780625,9.913741763617786,0.9070259871628394,268814.05559266754,1.2000000000000002,23170.587221196383,97.0873786407767
10,walk,10.386013239248213,0.16884471181314362,10.387385048178956,11.022995903976089,9.931444851544033,1.091551052432056,269744.42034782935,1.2000000000000002,33255.813376398946,95.23809523809524
10,walk,10.372602333364325,0.21037917527746444,10.374734736837684,11.465462893583156,9.66092088497487,1.804542008608287,269087.80214936624,1.2000000000000002,27937.81388673504,97.7198697068404
10,walk,10.338468858390373,0.18936155173531197,10.340202212242477,10.959675555474188,9.849325797214009,1.1103497582601793,267299.4544751606,1.2000000000000002,18090.975679501003,97.7198697068404
10,walk,10.330329410339191,0.26730374065376517,10.333785774602184,11.2422769985378,9.65129148716254,1.5909855113752602,266967.8210884261,1.2000000000000002,36939.343303869995,103.09278350515464
10,walk,10.347641871344418,0.2578547087475348,10.350852851470895,11.052636801025123,9.627553426837874,1.425083374187249,267850.38688200794,1.2000000000000002,37357.98143578839,102.73972602739727
10,walk,10.352943875709054,0.2195753285937107,10.355271166569162,11.01232811292072,9.607638081618054,1.4046900313026658,268079.1023329466,1.4000000000000001,37836.05713808807,100.33444816053512
10,walk,10.35078193360729,0.19275881595312255,10.352575898578781,11.168617516285693,9.865381055555023,1.3032364607306697,267939.5693395856,1.4000000000000001,27816.881325207676,101.69491525423729
10,walk,10.342089710328793,0.24039104265819258,10.344882034839141,10.96146862187153,9.602542901048146,1.3589257208233843,267541.4607868441,1.2000000000000002,44419.51491045882,93.16770186335404
10,walk,10.35279881870271,0.260147186008653,10.35606551100837,11.237538998374575,9.585597129390546,1.6519418689840286,268120.2321707427,1.4000000000000001,56198.6158847375,89.02077151335311
10,walk,10.379563491350348,0.29370548777658084,10.383716419440473,11.768342691459393,9.714315304108004,2.0540273873513897,269553.9166983942,1.4000000000000001,56395.59772762136,92.02453987730061
10,walk,10.359246375087112,0.24643198567298627,10.362175924574373,11.056523725376978,9.667007892660976,1.3895158327160022,268436.72472957196,1.4000000000000001,37918.34820160396,98.03921568627452
10,walk,10.323936041829937,0.17065857851952326,10.325345906868074,10.866072202582941,9.944057850463365,0.9220143521195769,266531.92024119326,1.4000000000000001,22200.368604956846,92.5925925925926
10,walk,10.308324501602177,0.15978761147701964,10.309562352412494,10.957325529174629,9.916090097999255,1.041235431175373,265717.68974570255,2.4000000000000004,13162.124393643193,92.3076923076923
10,walk,10.349593385335261,0.15712232122784783,10.350785515632806,10.955359911853797,9.910031184707158,1.0453287271466394,267846.9019765847,1.4000000000000001,13754.253000239061,92.87925696594426
10,walk,10.368815245758356,0.18482760127467354,10.370461763025162,10.92205829657988,9.726813052331714,1.1952452442481665,268866.19294591737,1.2000000000000002,36897.54050571409,92.02453987730061
10,walk,10.349465147400533,0.21826020214646866,10.351765419390695,11.243415498894962,9.809568668495848,1.4338468303991139,267897.61824523256,1.2000000000000002,29067.03261505314,90.09009009009009
10,walk,10.362279870984747,0.19386316190892544,10.364092435760634,10.855609031916332,9.805942268050018,1.0496667638663144,268536.03004247695,1.4000000000000001,32584.674287787475,85.9598853868195
10,walk,10.370387816013302,0.23445201171625155,10.373036643780676,11.297784939912153,9.715367106264342,1.5824178336478116,268999.72303304164,1.4000000000000001,26233.581778869273,88.49557522123894
10,walk,10.32547793957842,0.165510333497231,10.326803832442389,10.855689108964942,9.72140915801521,1.1342799509497326,266607.193484367,1.2000000000000002,18984.691999104427,93.75
10,walk,10.329322955708484,0.16676316778192865,10.330668494994567,10.866614683026306,9.894736478949245,0.9718782040770613,266806.77888368326,1.2000000000000002,20880.482567531984,88.75739644970413
10,walk,10.322959669646186,0.2073898136660635,10.325041872638591,11.02284052538023,9.725243337458913,1.2975971879213173,266516.22417935054,2.4000000000000004,33399.88252577188,84.03361344537815
10,walk,10.319984994640985,0.15028395330785713,10.321078747986098,11.12232456369673,9.967372091090382,1.1549524726063467,266311.66630532563,1.2000000000000002,20577.830162599712,80.0
10,walk,10.323219318243963,0.11194178712243937,10.323825988648007,10.69226806337675,10.03227609783182,0.6599919655449291,266453.45760971005,1.2000000000000002,5632.679682956857,82.19178082191782
10,walk,10.325719715752033,0.16447354156334423,10.327029019690334,10.822443089064405,9.82810949468376,0.9943335943806453,266618.8209338158,1.2000000000000002,12480.485758685001,83.10249307479225
10,walk,10.32958697276069,0.15382083093722926,10.330731746179376,10.836116130105449,9.806792650007505,1.0293234800979434,266810.046028796,2.4000000000000004,9724.214641972849,79.57559681697613
10,walk,10.328899662103707,0.15596838157648094,10.330076700364003,10.731381714079248,9.825463659409712,0.9059180546695362,266776.21158850816,1.2000000000000002,15239.232128817528,80.21390374331551
10,walk,10.304438407701895,0.15134529027829083,10.305549336782228,10.76452088315305,9.945724231978241,0.818796651174809,265510.86783213157,1.2000000000000002,12232.64285541966,91.46341463414633
10,walk,10.321721393754075,0.16795752243546333,10.323087279284794,10.815230061363279,9.687938713817237,1.1272913475460413,266415.3274393288,4.4,9259.304650808232,86.45533141210375
10,walk,10.327594921779895,0.1784488719200044,10.329135884993642,10.93957413079564,9.841601496289684,1.0979726345059557,266727.6203266585,1.2000000000000002,15239.69440238156,82.19178082191782
10,walk,10.343865195147812,0.1615904430403974,10.345126785210695,10.824296380489523,9.920880431616755,0.9034159488727678,267554.12050520943,1.2000000000000002,16423.26187244011,81.52173913043478
10,walk,10.339775164583523,0.14997772957618952,10.340862380680797,10.811305300109096,9.896915308788572,0.9143899913205242,267333.58694044827,1.2000000000000002,13274.618332652895,81.52173913043478
10,walk,10.321974891515033,0.15723643396687256,10.323171947997134,10.747881674381329,9.738112043653803,1.0097696307275257,266419.69766978733,1.0,10386.840055938299,82.41758241758242
10,walk,10.32500366471575,0.1591234594910853,10.326229264530395,10.773819821025205,9.904502075008365,0.86931774601684,266577.5270591099,2.2,19486.82661667094,81.52173913043478
10,walk,10.336626776615605,0.16867947872900985,10.338002442661946,10.894034282887398,9.91146473715939,0.9825695457280084,267185.73626121087,1.2000000000000002,15381.542171624156,81.08108108108108
10,walk,10.318453164488494,0.12333593637428514,10.319189957367907,10.678903152688278,9.971527011696523,0.7073761409917552,266214.20344060665,1.0,14768.009766253823,82.19178082191782
10,walk,10.31266954880523,0.18930600417788487,10.314406219039812,11.137432284498813,9.778257314904648,1.3591749695941644,265967.4391284179,1.2000000000000002,19203.066680141015,81.30081300813008
10,walk,10.321637405099132,0.1427030363643025,10.322623442384522,10.78200538032489,9.937467058901019,0.8445383214238706,266391.38683316624,1.0,10965.200623574807,82.64462809917356
10,walk,10.346633592719463,0.15736929025546997,10.34782981544773,10.887394331979038,9.909821351162034,0.9775729808170048,267693.9547236725,1.2000000000000002,15565.086184610385,83.79888268156425
10,walk,10.339276816824434,0.1938177620806084,10.341092562862551,11.212855255161509,9.689637154054923,1.5232181011065862,267345.4884842279,1.2000000000000002,31213.988837285597,88.75739644970413
10,walk,10.325342110638346,0.16633472077595599,10.326681261381191,10.782874746173281,9.769784118435272,1.0130906277380092,266600.86468540353,1.0,18961.889133616016,90.63444108761328
10,walk,10.350145392820984,0.23805504059621485,10.352881588562953,11.356971344164556,9.742775953886017,1.6141953902785389,267955.39296701446,1.2000000000000002,42247.621172961335,83.56545961002786
10,walk,10.331830677119575,0.16490139905811882,10.33314602311861,10.858494781842264,9.774886479016411,1.0836083028258532,266934.76683772984,1.0,18219.845272871407,86.20689655172414
10,walk,10.32881776035946,0.15913519075988458,10.330043088295984,11.178808522417594,9.952375501038917,1.2264330213786767,266774.47551512904,1.2000000000000002,17182.4857626637,86.20689655172414
10,walk,10.333582338710908,0.17483659207470947,10.335060694437779,10.907147445401847,9.682700810745265,1.2244466346565819,267033.69889428176,1.2000000000000002,13863.8455896831,84.03361344537815
10,walk,10.3265040555152,0.16524082750543423,10.327825502874944,10.791135940457021,9.802277059701238,0.9888588807557834,266659.9490445852,1.2000000000000002,17662.919235052952,79.15567282321899
10,walk,10.320627287018997,0.14671825157942148,10.321669692080322,10.803071891892603,9.90197481276069,0.9010970791319135,266342.1630810237,1.2000000000000002,10681.776304681043,84.03361344537815
10,walk,10.31448295790626,0.1651288385764955,10.315804152622079,10.867934405530596,9.595921842374416,1.2720125631561796,266039.5382881373,2.2,14746.89014423721,91.74311926605505
10,walk,10.32305960873329,0.2134866822275571,10.325266002303469,10.938445424448648,9.854241615107252,1.0842038093413962,266527.79504580965,1.2000000000000002,24590.407158146845,92.5925925925926
10,walk,10.32036637475046,0.1709003586342758,10.32178072615807,11.180270917142828,9.829936191310141,1.3503347258326865,266347.8933972205,1.2000000000000002,16766.15235908646,87.97653958944281
10,walk,10.33309178643,0.14947081773848522,10.334172364322766,10.904466869184812,9.879709085666885,1.0247577835179271,266987.796138831,1.2000000000000002,11804.004413657321,85.9598853868195
10,walk,10.318301858828574,0.14263447076637303,10.319287267264107,10.714494783322445,9.863522589108383,0.8509721942140622,266219.2242607978,2.2,10386.791355419346,87.97653958944281
10,walk,10.308257117739476,0.19175510673344973,10.310039772880438,11.145245181330948,9.568689758659868,1.5765554226710794,265742.3002959413,1.0,11715.860581162116,93.16770186335404
10,walk,10.300211974261604,0.14726728617063942,10.301264276448633,10.725426718754793,9.900693045329527,0.8247336734252659,265290.1142330919,1.0,13013.155469689096,92.02453987730061
10,walk,10.301099889492896,0.16472739942627934,10.302416376529626,10.953350293501307,9.820839657270263,1.1325106362310446,265349.45798846456,1.2000000000000002,13894.952852735023,83.10249307479225
10,walk,10.309099979402705,0.14442967662033526,10.310111249294884,10.804366160729062,9.92786865722591,0.8764975035031526,265745.98493209225,1.2000000000000002,9058.73730105345,82.41758241758242
10,walk,10.304860140065756,0.13875259584372093,10.30579386016702,10.874958507201296,9.928693746853066,0.9462647603482299,265523.4677206406,2.2,13794.215265478491,85.22727272727273
10,walk,10.312461387108677,0.18260498490187058,10.314077326803702,11.014814665196106,9.524964249269955,1.489850415926151,265950.4777582155,3.0,10567.665268165238,86.95652173913044
10,walk,10.309684419936975,0.16754973936389428,10.311045268288082,10.891229585173377,9.87271596664936,1.0185136185240182,265794.1363117151,1.2000000000000002,16194.526079661462,89.02077151335311
10,walk,10.306497016624641,0.14838408688832577,10.307564687344893,10.739156165641957,9.889354653017786,0.84980151262417,265614.72445949854,1.0,16804.97313149577,83.56545961002786
10,walk,10.307556322639403,0.1692334896728328,10.308944944193891,10.731910370958857,9.809606405031602,0.9223039659272558,265685.86465605197,1.2000000000000002,27736.00320952137,76.33587786259541
10,walk,10.32797093226403,0.19629352414157217,10.329835396212836,10.89179637109431,9.88330967761619,1.0084866934781207,266763.748282129,1.2000000000000002,24422.56806386696,82.87292817679558
10,walk,10.327528018253187,0.17658215327486823,10.329036922780217,10.731953000105811,9.662931719299722,1.0690212808060888,266722.50938039256,1.2000000000000002,16318.519657052326,83.56545961002786
10,walk,10.334386105226452,0.16855104592233117,10.335759975115378,10.951692389158618,9.902285304109993,1.0494070850486246,267069.8356579926,2.4000000000000004,15578.061537663702,81.9672131147541
10,walk,10.335426287550748,0.1603012800116494,10.336668842870427,11.063421729664652,9.873735629659134,1.1896861000055186,267116.80691792065,1.2000000000000002,12641.41178163807,79.15567282321899
10,walk,10.3323640901724,0.15821303404709572,10.333574843367657,10.837347846429108,9.786071635717141,1.0512762107119666,266956.9226087022,1.2000000000000002,13202.404868892101,81.52173913043478
10,walk,10.326932729876859,0.1513825017240743,10.328041784509075,10.695775469382143,9.930557535842622,0.7652179335395211,266671.1177564135,1.2000000000000002,14114.9195378822,85.71428571428572
10,walk,10.315114121768623,0.17575583778643178,10.316610737232491,10.793705201998865,9.800721146009723,0.9929840559891421,266081.14275895176,1.2000000000000002,25247.073362166775,83.56545961002786
10,walk,10.331370816544597,0.1345318832950124,10.332246345158502,10.818034516205953,9.838068620067146,0.9799658961388076,266888.28634260304,1.2000000000000002,15359.395636061996,79.36507936507937
10,walk,10.327920746771563,0.15415096568497474,10.329070624543528,10.948555145829491,9.85129595896535,1.0972591868641413,266724.2499170201,3.4000000000000004,7096.887980888679,89.55223880597015
10,walk,10.31845866093652,0.13535181764214452,10.319346002724643,10.842623265933142,9.807350071747283,1.0352731941858586,266222.2548098727,4.800000000000001,5807.39651924261,86.70520231213874
10,walk,10.31999549038504,0.12561177057613318,10.320759609987439,10.741742620201173,9.984095487202346,0.7576471329988266,266295.19731787016,1.2000000000000002,5867.235009293881,81.9672131147541
10,walk,10.317600514657348,0.15536702971216979,10.318769773495948,10.843596365419383,9.88636216149818,0.9572342039212032,266192.524096034,1.0,11341.428494538017,79.7872340425532
10,walk,10.316705152827337,0.19127625626926437,10.318477464332808,10.94165435454612,9.852281991933758,1.0893723626123624,266177.44295486005,1.2000000000000002,25952.776523653767,88.75739644970413
10,walk,10.337090637693418,0.2328216174839575,10.339711169810043,11.176202130478393,9.62027809715026,1.5559240333281323,267274.06768773636,1.8,25579.964483400177,88.75739644970413
10,walk,10.315462174014515,0.1605801149032201,10.31671146841072,10.875320843777367,9.74965093177009,1.125669912007277,266086.3388060932,1.0,14766.102069801933,88.23529411764706
10,walk,10.324387530157997,0.1723050834938613,10.325824666294846,10.933928384339566,9.898683227687437,1.0352451566521292,266556.6375976577,2.2,18650.06478744212,95.84664536741214
10,walk,10.341528962429177,0.15729284434466667,10.34272461313884,11.352288571221136,9.53595847888319,1.816330092337946,267429.8810580699,1.2000000000000002,14982.075105355489,95.23809523809524
10,walk,10.313224495843263,0.18334241929941755,10.314853392007034,10.975667236804696,9.936894149816325,1.0387730869883711,265990.50124649756,2.2,28240.885006508364,94.04388714733543
10,walk,10.310087849570676,0.18749831665689107,10.311791940413,10.981582054279231,9.843402289790475,1.138179764488756,265832.6325559163,1.2000000000000002,17934.645410491896,89.28571428571428
10,walk,10.297449673299466,0.15735692721721734,10.298651420074258,10.81403936178765,9.895109721462925,0.9189296403247251,265155.5526804938,2.2,11985.455368547104,89.82035928143712
10,walk,10.293220525495563,0.15398247272152193,10.294371758594492,10.836001351869102,9.855115959594139,0.9808853922749634,264935.22476036963,2.0,12428.9612893725,90.9090909090909
10,walk,10.297462655879315,0.1030155513822049,10.297977719347333,10.68361224266915,9.949014174183654,0.7345980684854965,265120.8627704353,1.6,3049.0274640934367,83.79888268156425
10,walk,10.294426820093015,0.1329816527361914,10.29528535789887,10.844913575942732,9.787382846656168,1.0575307292865634,264982.25150141714,4.2,5592.822010970382,81.08108108108108
10,walk,10.308096975757064,0.1323510509663909,10.308946263104856,10.771069658049555,9.845505696546704,0.925563961502851,265685.9326389589,2.2,8010.416265504938,80.21390374331551
10,walk,10.312939383795817,0.12565633511631158,10.313704568805326,10.641497336583502,9.867906865845907,0.7735904707375951,265931.25483148964,5.4,5523.472315563842,81.30081300813008
10,walk,10.30516052543601,0.15091229770906367,10.306265029912424,11.011513700846617,9.861363645326126,1.1501500555204913,265547.7471669894,1.6,9272.531976298857,79.36507936507937
10,walk,10.294223478038457,0.13629071367746914,10.29512529036774,10.700495039775205,9.925253389116776,0.7752416506584296,264974.0118609236,2.2,10270.608029548082,80.0
10,walk,10.30307974391038,0.142438979157499,10.304063904917065,10.84885451210417,9.906533042363773,0.9423214697403974,265434.3323915368,1.0,6695.314150805523,82.41758241758242
10,walk,10.3006095765529,0.13845570972659244,10.30153968900454,11.062028202129186,9.881791600001435,1.180236602127751,265304.2999103394,1.0,8169.450072875002,81.08108108108108
10,walk,10.303247032424894,0.1331835306617599,10.304107441640483,10.906582161257488,9.889887950523732,1.016694210733755,265436.5754221769,2.0,5315.451858981816,82.19178082191782
10,walk,10.294327243950375,0.13533153752927105,10.295216399121436,10.824737909728865,9.831556731399912,0.9931811783289533,264978.70176184736,2.0,8219.423999962197,80.86253369272237
10,walk,10.30537606772804,0.13765975511814663,10.30629509209773,10.895471860592037,9.888917000157784,1.0065548604342531,265549.29631349444,1.0,4649.146886473192,78.53403141361257
10,walk,10.318056365430786,0.14668797482495607,10.319098599936925,10.895398717510679,9.925581213380235,0.9698175041304431,266209.48978805053,3.2,12223.7932168303,77.31958762886597
10,walk,10.307554606703965,0.12902041433383124,10.308361731089578,10.882207170734842,9.826098119544161,1.0561090511906812,265655.8039474803,2.0,6110.108171549796,82.64462809917356
10,walk,10.3054166768151,0.13658222386537033,10.306321367237352,10.757834391921152,9.939662479712432,0.8181719122087205,265550.650311933,2.2,7955.212318727983,86.20689655172414
10,walk,10.307410658003311,0.1534085399634998,10.308551752752756,10.883022426344954,9.995115378336534,0.8879070480084206,265665.5980979548,1.6,8243.078948383156,82.64462809917356
10,walk,10.313474032076737,0.14115064872594507,10.314439497449905,10.796921360661033,9.823022819072529,0.973898541588504,265969.1553663867,3.2,7787.084768301379,86.95652173913044
10,walk,10.315771274684247,0.16912347250746404,10.317156987244791,10.827874661598067,9.759831699668103,1.0680429619299634,266109.3207486351,1.4000000000000001,10968.683134306084,95.54140127388536
10,walk,10.309583292850965,0.1470375251278253,10.310631360785523,10.849116023942258,9.919229387490935,0.9298866364513234,265772.7976450348,4.2,6197.376642655909,95.23809523809524
10,walk,10.32547428386287,0.16170606911391844,10.32673992990821,10.7286463018939,9.72423880230802,1.004407499585879,266603.89394990157,2.2,9840.236621427828,86.95652173913044
10,walk,10.322344402018716,0.15943445736106068,10.323575113900352,10.826273559863006,9.847502692521447,0.9787708673415594,266440.50783085666,1.6,10190.002344459039,85.22727272727273
10,walk,10.328646452412862,0.14150683537348804,10.329615371044774,10.734010415301006,9.82666240940938,0.9073480058916257,266752.38428431115,1.2000000000000002,9476.190633312854,85.71428571428572
10,walk,10.323919755498569,0.1484846003664646,10.32498706902091,10.786966414307193,9.84302946384959,0.9439369504576032,266513.3949386225,3.4000000000000004,8977.45931751181,84.74576271186442
10,walk,10.31272786635987,0.18865306461792933,10.314452568527019,11.082499060384599,9.799858176407236,1.282640883977363,265969.82947098406,4.2,16037.24969105453,82.64462809917356
10,walk,10.315076875139127,0.14416460910721382,10.316083852953852,10.828860983922933,9.946286033371736,0.8825749505511968,266053.965152938,1.2000000000000002,13179.960430196377,81.30081300813008
10,walk,10.303350748963465,0.15531775868991757,10.304520882257844,10.97993079971334,9.914625872607076,1.065304927106265,265457.8765322199,2.2,7600.2544689611095,80.21390374331551
10,walk,10.311831336682726,0.14708758295450478,10.312879889698532,10.770467800327632,9.968089042427012,0.8023787579006196,265888.7290483711,2.2,8046.627461924274,83.79888268156425
10,walk,10.314360742912253,0.14991658607169028,10.315449749173116,10.84619851799539,9.88974153503551,0.9564569829598799,266021.2588192893,1.0,6457.334672249525,82.19178082191782
10,walk,10.295012563000963,0.13488761038277752,10.295895835813193,10.843303368042074,9.943169970711947,0.9001333973301264,265013.67765478865,1.6,6477.28514910494,78.32898172323759
10,walk,10.301934019275091,0.12193208962449956,10.302655290021297,10.88360788363589,9.912237015375805,0.9713708682600846,265361.76506250957,5.4,5397.933506453194,79.7872340425532
10,walk,10.314712625804408,0.1284081999911059,10.315511554125054,10.764327983648046,9.96700343475303,0.7973245488950162,266024.4465582187,5.4,5250.444696679066,84.98583569405099
10,walk,10.302831879768608,0.15524559765214552,10.30400098495184,10.87048092055627,9.906096912479937,0.9643840080763333,265431.09074472124,1.0,13801.868429319933,89.82035928143712
10,walk,10.312624422598343,0.1508180743211304,10.31372675004904,11.147443561089315,9.849069887729174,1.2983736733601408,265932.3986866928,1.2000000000000002,12890.37422535662,84.98583569405099
10,walk,10.317289677471246,0.14318109694701997,10.318282750295566,10.751819812951911,9.768436341253594,0.9833834716983176,266167.3972876176,1.2000000000000002,16157.542569779705,81.74386920980926
10,walk,10.314553064500215,0.13350165092244887,10.315416641227513,10.932088735526511,9.942878412284522,0.9892103232419895,266019.55120528373,1.2000000000000002,16939.145658580466,79.57559681697613
