num_sujeto,actividad,media_a,sd_a,rms_a,maximo_a,minimo_a,rango_a,energia_a,f_dom_a,energia_f_dom_a,ppm_ecg
6,walk,10.122823531782819,0.24988370727976483,10.125906040746825,11.160692951002193,9.454170857893013,1.7065220931091805,256334.93286508258,1.6,43872.21247916886,87.71929824561403
6,walk,10.120943154350071,0.23695039714003377,10.123715393376786,11.159631664405573,9.60380460081641,1.5558270635891631,256224.03341523523,1.6,39483.08566889097,81.74386920980926
6,walk,10.122682680649598,0.24898305453540984,10.125743055082157,11.17220430456747,9.443253590438179,1.728950714129292,256326.68104386138,1.8,30353.75674116558,80.86253369272237
6,walk,10.144212268086637,0.15948575669188345,10.145465394564429,10.603744077716383,9.665458951389077,0.9382851263273064,257326.1701807609,2.2,12748.764885128112,77.92207792207792
6,walk,10.116672114883531,0.1679569071701587,10.118065670814708,10.628752778610101,9.628917640946794,0.9998351376633074,255938.13229729777,2.2,12514.438638481332,87.97653958944281
6,walk,10.111019762808631,0.20533994047450346,10.113103790096506,10.806722682920885,9.38998891377716,1.4167337691437254,255687.1706731608,2.2,21123.749533417213,85.22727272727273
6,walk,10.117974893687979,0.21994150754017958,10.120364166685535,11.038587361291201,9.640994543971122,1.3975928173200796,256054.4271658315,1.0,16122.380686196148,78.74015748031496
6,walk,10.093138679992474,0.23015102457313305,10.095761324430892,10.679106610849741,9.204243174959828,1.4748634358899135,254810.99179968657,1.8,23361.22714421221,88.23529411764706
6,walk,10.098465616172934,0.37964605023478,10.10559653222097,11.651164576091263,9.180463611695417,2.4707009643958457,255307.70318009122,1.6,102721.560331507,83.79888268156425
6,walk,10.096754408012261,0.21287731320627662,10.098997385854338,10.645564493717186,9.453447055108951,1.1921174386082356,254974.37049873185,1.6,24758.39855332242,86.20689655172414
6,walk,10.104062470552895,0.15415145795890153,10.105237828757796,10.674951740145698,9.504325271665516,1.1706264684801813,255289.57893939392,0.4,11464.539767746555,81.52173913043478
6,walk,10.101428740565435,0.24441710424144164,10.104384119068257,10.89248679803635,9.422692375709126,1.4697944223272241,255246.446064197,0.8,28988.97946156293,78.74015748031496
6,walk,10.162356665881857,0.4998989180469692,10.174639648325961,13.020836622747337,9.072450011699328,3.9483866110480097,258808.22993321653,2.6,97663.82085194059,84.74576271186442
6,walk,10.227743701086252,0.4723782761113734,10.238642155791808,12.199393618779387,8.596051589946,3.603342028833387,262074.48298589283,1.4000000000000001,142168.034223522,85.47008547008548
6,walk,10.189526963948014,0.4548963844741826,10.199671940672557,11.337484047592465,8.8166384725588,2.5208455750336647,260083.2692433577,1.6,199252.67523274288,85.22727272727273
6,walk,10.178022966377492,0.2947076629379339,10.182287040231158,11.019839444679418,9.127134723251604,1.8927047214278137,259197.42342414847,1.0,33228.48300324628,85.22727272727273
6,walk,10.219047265747603,0.41089820037579294,10.227301541253352,11.49928324683998,8.855537962721591,2.6437452841183884,261494.24203930795,0.8,122253.05163948082,77.720207253886
6,walk,10.158474137662727,0.29711041832761875,10.162816346682694,10.841937819405567,9.09264671114934,1.7492911082562266,258207.0902410025,1.6,49480.12250800813,84.74576271186442
6,walk,10.161391675755443,0.5009563043022188,10.173727813542321,11.988935696770099,8.602642245923633,3.386293450846466,258761.84406011156,2.2,183429.7104904781,82.41758241758242
6,walk,10.213653565351477,0.35071380194527857,10.219670744394042,11.223695463929605,9.22818230636277,1.995513157566835,261104.1753095587,2.0,50120.282652712885,81.74386920980926
6,walk,10.250882484669548,0.604711899475706,10.268696213506361,12.74496964970949,8.73408785741583,4.010881792293661,263615.30481319973,2.6,166042.92567837017,84.50704225352113
6,walk,10.231841252320184,0.6476052208829717,10.25230706610893,12.403566895052244,8.29272937854986,4.110837516502384,262774.50044446776,2.4000000000000004,342533.26289653213,79.15567282321899
6,walk,10.173183307287632,0.2290314803931435,10.175760071882552,10.93060851088472,9.686392715136224,1.244215795748497,258865.23260129802,2.4000000000000004,23368.07276681226,87.71929824561403
6,walk,10.227931532494985,0.4395498383516609,10.237368324534192,12.07210507000678,9.13066961350085,2.94143545650593,262009.27553044,1.8,108682.35097322312,88.75739644970413
6,walk,10.211516585632527,0.29484162637835026,10.215770543168038,11.182653874606077,9.40790740586568,1.7747464687403962,260904.91947664943,1.6,69489.90474114685,85.9598853868195
6,walk,10.196538349191641,0.30373460702171806,10.201059362446324,10.885366507922672,9.2482755174585,1.6370909904641717,260154.03029038454,1.6,52875.70846497892,83.79888268156425
6,walk,10.213164508052872,0.2897590088238423,10.21727243287719,11.260634253365755,9.331526091154037,1.9291081622117172,260981.63991908036,0.8,44000.62334815689,89.82035928143712
6,walk,10.221364688266346,0.3590453912141919,10.227666308501329,11.213465938795874,8.540072964346113,2.6733929744497615,261512.89529513294,1.8,70363.69873398483,90.09009009009009
6,walk,10.234318892776928,0.36324116550093966,10.240760448604757,11.539968327773803,9.037509855692926,2.5024584720808765,262182.9364142688,0.6000000000000001,103883.67846494335,86.95652173913044
6,walk,10.259434840486026,0.30179572578098,10.263870979022203,10.975465222622717,9.422670542704108,1.552794679918609,263367.6186850355,0.8,89156.06440121178,83.79888268156425
6,walk,10.225679993726196,0.43202800489292587,10.234798721607824,11.294847543753747,8.294146422376144,3.0007011213776025,261877.76217956282,1.0,112803.35299052179,82.64462809917356
6,walk,10.272151977361245,0.4400063672573218,10.28156770181436,11.283370492104915,8.596839321046666,2.686531171058249,264276.5860174806,0.8,90497.00793454719,88.75739644970413
6,walk,10.371831366943152,1.033431373664197,10.423168381841371,16.22222766487972,6.754992266207221,9.4672353986725,271606.0977905442,2.2,500015.4246569585,87.46355685131195
6,walk,10.248112804844327,0.6197786790913217,10.266829501926386,11.813104953155007,7.470943886876949,4.342161066278058,263519.47005406505,1.8,168181.61941940946,78.125
6,walk,10.230323050985797,0.5340844437774025,10.24424920734258,13.01270863986376,8.710824150758487,4.301884489105273,262361.6045553477,1.0,108947.76630186882,86.95652173913044
6,walk,10.281636603925564,0.6863389447736361,10.304509885377186,12.417620787399454,7.648278906285302,4.769341881114151,265457.30994459044,2.6,196210.19048683476,83.10249307479225
6,walk,10.282296442587597,0.6369052711579067,10.301995253267616,12.239469587109049,7.469953892177727,4.769515694931322,265327.7654958713,2.0,225019.67393996133,88.23529411764706
6,walk,10.266486444704759,0.5160603781315388,10.279443355836845,12.068781041502277,8.888276268853968,3.180504772648309,264167.38926464564,1.0,108620.29692881666,81.9672131147541
6,walk,10.29434666391396,0.5267549756880737,10.307809323659749,11.63190748482123,7.903868505521745,3.7280389792994857,265627.3326323171,1.8,135888.06612904748,77.92207792207792
6,walk,10.305218596404279,0.41470771355096053,10.313556322353612,11.492276106923974,8.765969259900546,2.7263068470234284,265923.6100359004,0.8,154423.87776291565,84.98583569405099
6,walk,10.35473872769771,0.40614366144863934,10.362697564415754,11.591120404727555,8.817775412161314,2.7733449925662406,268463.7520288705,0.8,150895.00461995925,80.64516129032258
6,walk,10.354875626863402,0.3340456983329669,10.36026018697277,11.055728937331248,9.133952076231916,1.9217768610993318,268337.47785443265,0.8,77397.98635079691,85.22727272727273
6,walk,10.312045347536099,0.3102531559785583,10.316709638621571,11.257538749323535,9.251487257205104,2.0060514921184307,266086.24441906804,2.0,39901.14076856338,85.47008547008548
6,walk,10.316394986306056,0.27846040921022847,10.320150904754176,11.275524449421498,9.70836159307821,1.5671628563432876,266263.7867422461,1.4000000000000001,58213.29543303216,82.19178082191782
6,walk,10.271157319578842,0.2775792828330463,10.274905942230946,11.133639661353016,9.46112306495354,1.6725165963994755,263934.23030423204,2.4000000000000004,42153.987176850016,88.75739644970413
6,walk,10.250904375713944,0.23517682092346784,10.253600661907802,11.012126186183382,9.657175068526069,1.354951117657313,262840.8163346903,1.2000000000000002,31654.11607047775,90.63444108761328
6,walk,10.236320114866531,0.239482876712483,10.239120011086909,10.937453357993737,9.399907163711589,1.5375461942821484,262098.94650360092,1.6,26906.15621927981,77.31958762886597
6,walk,10.302774545559936,0.45419605922536904,10.31277726314447,11.66900127077001,8.886130947647924,2.7828703231220864,265883.43719807384,1.0,124356.48157475152,84.74576271186442
6,walk,10.370490166828315,0.4077030087183702,10.378498039451733,11.518235163847677,9.08757546078214,2.430659703065537,269283.05388725863,1.0,192505.44641751196,80.21390374331551
6,walk,10.254010754806133,0.34794221493352256,10.259909937182623,11.295616991976651,9.136164205193298,2.159452786783353,263164.3797977469,1.2000000000000002,67997.11974300153,84.26966292134831
6,walk,10.165482535563966,0.2313819550820535,10.168114445409726,10.883977931937556,9.26743173433675,1.6165461976008064,258476.37843737486,1.8,15665.842867574804,89.02077151335311
6,walk,10.184199806721859,0.24676048458522956,10.187187643490798,11.087137914098438,9.299881573003882,1.7872563410945563,259446.980209229,2.0,24237.52300592693,78.94736842105263
6,walk,10.203479192105469,0.22543162863325045,10.20596819097286,10.91263378285858,9.583459983210643,1.3291737996479362,260404.46678787458,2.6,29573.405762420127,85.71428571428572
6,walk,10.185976838473646,0.17678792479463035,10.187510275954896,10.681440902383716,9.642038153248349,1.039402749135368,259463.41405671655,2.4000000000000004,18659.505556502816,85.47008547008548
6,walk,10.205739147084696,0.19636495832088766,10.207627310570988,10.84992714343968,9.60132260787798,1.2486045355617001,260489.1382787867,2.2,15792.133802284705,81.08108108108108
6,walk,10.22749840833627,0.2374732556950626,10.230253891388644,10.873638701827929,9.546947692787226,1.3266910090407027,261645.23670568125,2.4000000000000004,18293.706201531248,85.47008547008548
6,walk,10.226989535149773,0.22679274198630997,10.229502887525939,10.837885262939858,9.637225567856438,1.20065969508342,261606.8233147538,3.0,22425.448196197336,85.71428571428572
6,walk,10.257481932418987,0.2551488015396949,10.260653510593988,11.0268408445045,9.439790462280271,1.5870503822242288,263202.52616116183,1.4000000000000001,43878.487942030384,84.26966292134831
6,walk,10.291943776849134,0.4432760448324778,10.301481532298405,11.355354288701932,8.780692925263523,2.574661363438409,265301.3044007128,2.0,109293.31871010896,81.9672131147541
6,walk,10.276329141905643,0.3198547880309,10.281303749786371,11.20786844094817,9.394583703576833,1.8132847373713368,264263.0169884282,1.4000000000000001,90558.66871492399,88.49557522123894
6,walk,10.288478631913808,0.22983599380852673,10.291044456884022,11.18529387150663,9.727485690974133,1.4578081805324974,264763.9900339084,1.2000000000000002,47865.6854447977,87.46355685131195
6,walk,10.259554582524501,0.3000696572173053,10.263940082359323,11.658416099293484,9.463016936330039,2.1953991629634455,263371.1650356557,1.4000000000000001,48738.21577829543,79.15567282321899
6,walk,10.239554089174169,0.28483974947789276,10.243513517076693,11.38346519982856,9.269948293212435,2.113516906616125,262323.9229363323,1.2000000000000002,45039.97345686098,86.70520231213874
6,walk,10.275739042865013,0.27100220253818746,10.279310565109093,11.523785750325523,9.385485004789171,2.138300745536352,264160.56423490855,1.4000000000000001,67063.0354916546,87.2093023255814
6,walk,10.28415527217629,0.3033791562063208,10.288627301981878,11.253457025995287,9.235143886624563,2.018313139370724,264639.62939771725,1.2000000000000002,87170.31992540287,82.87292817679558
6,walk,10.286933758696897,0.3244756061910437,10.292047826407693,11.358942136040323,9.161450493170722,2.1974916428696005,264815.62115265825,1.2000000000000002,105175.88482255639,82.87292817679558
6,walk,10.232853463200634,0.2842365418073626,10.236798722983233,11.069290492765738,9.417923443048243,1.6513670497174946,261980.12023717788,1.4000000000000001,39923.53280102021,84.98583569405099
6,walk,10.248197390167125,0.4549628267842961,10.258287290045756,11.563931118746282,8.955146210259922,2.60878490848636,263081.14531278575,2.6,82967.6766716094,80.0
6,walk,10.221511423681248,0.4121391472445682,10.229813611091213,11.488554453833201,8.789907024772738,2.698647429060463,261622.71629416762,2.4000000000000004,99844.10059291344,87.46355685131195
6,walk,10.22995509794455,0.3174693483668719,10.234878005056988,11.519739010607818,9.435916542099044,2.0838224685087745,261881.81944599826,2.6,89078.07933702771,84.98583569405099
6,walk,10.21638023968684,0.3031764280844684,10.22087591070507,10.902146986614799,9.218418869514863,1.6837281170999354,261165.76095507795,1.2000000000000002,55371.15941728535,89.02077151335311
6,walk,10.184330068228675,0.32886017905930676,10.189636141511171,11.562389788289629,9.435682616325973,2.1267071719636554,259571.71174097664,1.4000000000000001,68353.33386854778,83.56545961002786
6,walk,10.16099668875293,0.2719593854743042,10.164634082515347,11.206889877661048,9.275368268076937,1.9315216095841112,258299.4650785815,2.0,65420.11761355812,83.56545961002786
6,walk,10.187468750786259,0.2640788203945209,10.190889523323179,10.806185561644066,9.197771413182931,1.6084141484611347,259635.57319144535,1.8,54194.97603701084,81.30081300813008
6,walk,10.215623348611524,0.20524266290595425,10.21768408699121,10.934713289052631,9.74772864386547,1.1869846451871613,261002.6702538835,3.0,18025.05844352561,85.47008547008548
6,walk,10.194254173455398,0.23908474446300546,10.197056281272637,10.841677784778884,9.423726249884776,1.417951534894108,259949.89200860437,3.0,21782.651704653203,86.70520231213874
6,walk,10.289092629154522,0.28066615895701424,10.292918396388291,11.04169948347598,9.400505056046013,1.6411944274299675,264860.42278677126,1.2000000000000002,44301.168461651934,81.9672131147541
6,walk,10.28607960289716,0.2880192489779612,10.290109596252302,10.939153066931606,9.426528503859847,1.5126245630717587,264715.8887572093,3.2,36211.89319288166,87.46355685131195
6,walk,10.246285705331948,0.34962357923447407,10.252246510291666,11.438292413466009,8.880424884432697,2.5578675290333113,262771.3962694692,1.2000000000000002,70926.88076555378,86.95652173913044
6,walk,10.288024322382565,0.39727922537241805,10.295689006012884,11.425997961875355,9.232665126805983,2.1933328350693717,265003.03027133644,1.4000000000000001,67678.32883598878,82.19178082191782
6,walk,10.277724447784154,0.26309187154538943,10.281089897015793,11.202360383749014,9.485764072155977,1.7165963115930367,264252.02367630054,1.6,24618.685866528693,82.87292817679558
6,walk,10.210414210176573,0.3977905717285645,10.21815699563264,11.805785642401851,8.761994132602421,3.04379150979943,261026.83096849063,2.8000000000000003,52505.10656801453,82.19178082191782
6,walk,10.24427046573749,0.25459638174583865,10.247432398657354,11.115561768495764,9.579618088782837,1.5359436797129273,262524.6769126311,1.2000000000000002,35076.982883677265,87.71929824561403
6,walk,10.358226175848722,0.3792952507682006,10.365165548670124,12.139100474502865,9.187320119900805,2.951780354602059,268591.6421283451,1.4000000000000001,71315.95567463283,89.02077151335311
6,walk,10.342308032391601,0.3096189534484916,10.34693969189189,11.859873744408883,9.42323974846766,2.4366339959412233,267647.90246911964,1.2000000000000002,52513.690311410995,90.9090909090909
6,walk,10.336640670083987,0.5026375093855062,10.348849392588978,11.63009560127386,8.653962115268502,2.9761334860053577,267746.70937622315,1.0,221937.84551079368,92.02453987730061
6,walk,10.307994420234655,0.28772105594028374,10.312007528132325,10.899619669718529,9.428518018702423,1.471101651016106,265843.74815064436,1.6,37689.80743551022,91.1854103343465
6,walk,10.290471210897367,0.35543375028361707,10.2966052832906,11.36892703329431,9.106270918700709,2.262656114593602,265050.2008997197,1.4000000000000001,96193.63622546886,90.63444108761328
6,walk,10.287562089252653,0.3349722910234793,10.293011964114665,11.104306815368005,9.346100405411804,1.7582064099562018,264865.23823351914,2.8000000000000003,52309.781265318634,86.20689655172414
6,walk,10.332663221548364,0.4313927263356791,10.341661109048188,11.328765178340838,8.62597778380218,2.7027873945386585,267374.8862359995,0.8,74820.64123873357,83.33333333333334
6,walk,10.373300808768924,0.6282930486360039,10.392303109672483,11.966927226931826,8.30514446748631,3.661782759445517,269999.90980827087,2.2,371203.81543982064,86.95652173913044
6,walk,10.410886404210585,0.6308430000286428,10.429974085629631,13.318732465727853,7.88115857663566,5.437573889092193,271960.89856726414,2.0,244302.60280359807,79.36507936507937
6,walk,10.457613863948179,0.5003926569005134,10.46957403056097,12.092801227246571,8.879757327519648,3.213043899726923,274029.95095349173,1.0,172845.41196938415,87.2093023255814
6,walk,10.286910661359629,0.35869153252184355,10.293159821281854,11.663445457250177,9.255503382362384,2.407942074887792,264872.8477661277,0.8,61909.94215136571,82.41758241758242
6,walk,10.26060224002027,0.4144847957352518,10.268967195134394,11.69165934221802,9.009724418627963,2.681934923590058,263629.2181368659,1.0,157506.0102733853,87.46355685131195
6,walk,10.305609292517273,0.57862251340355,10.321833799351287,12.921174424169633,8.482650072176682,4.438524351992951,266350.63245357655,2.6,134310.75621800896,84.03361344537815
6,walk,10.289661162395603,0.5752927347742922,10.30572443755917,11.888053478094701,8.295417768916936,3.592635709177765,265519.89045726066,2.0,162151.52601735087,80.86253369272237
6,walk,10.307104556638691,0.7115029396217061,10.331623216126264,13.184070707484382,6.174173866364297,7.009896841120085,266856.09569999797,2.8000000000000003,223132.35839805778,87.2093023255814
6,walk,10.350442741450728,0.5386923796960796,10.36444587752769,12.452936984861797,8.765293454819151,3.687643530042646,268554.3458705018,2.0,157153.7712366782,82.41758241758242
6,walk,10.260737272052296,0.6805369707539293,10.283271594313685,13.716030751554024,7.672076339790857,6.043954411763167,264364.1867060468,2.8000000000000003,324287.6410836931,87.97653958944281
6,walk,10.241681590344003,0.6784369379420779,10.264118781760272,12.195999163357403,7.530327538650183,4.66567162470722,263380.33591520996,2.8000000000000003,319737.80215916364,82.87292817679558
6,walk,10.275735383837146,0.33195931703939474,10.281093842000312,11.341191948145047,9.298027730343042,2.043164217802005,264252.2264700418,2.2,83482.80283285202,79.36507936507937
6,walk,10.26363078287742,0.2842132580270129,10.267563572357219,11.12126581859804,9.075724987578026,2.0455408310200145,263557.1542809923,3.0,47767.06147064888,87.46355685131195
6,walk,10.271149946997943,0.33524463250913566,10.27661740271363,12.007483293313815,9.271159988369737,2.7363233049440776,264022.16310439154,2.2,48272.16260496955,79.7872340425532
6,walk,10.27490520422402,0.37384349524054866,10.28170122164323,11.710569010295037,9.178965642210551,2.531603368084486,264283.45002784976,2.8000000000000003,101756.11252244987,84.74576271186442
6,walk,10.243166107751595,0.4703607663143079,10.253955464394144,12.003382105323471,8.273658862755058,3.7297232425684133,262859.0066644463,1.8,109083.79713680265,86.45533141210375
6,walk,10.266679913245905,0.30504894306755737,10.271208988077817,11.508346325969923,9.545339714719454,1.963006611250469,263744.3351919263,2.2,32919.97088286083,90.36144578313252
6,walk,10.318366349808716,0.24679111286739916,10.321316079837581,11.006472930428865,9.656961958653273,1.349510971775592,266323.91404978454,2.0,24854.96198869969,85.71428571428572
6,walk,10.262421021768395,0.20246277949719135,10.264417178225209,10.78738581154598,9.528360536250428,1.259025275295551,263395.6500216119,3.0,28082.869695952817,78.94736842105263
6,walk,10.352428157905846,0.3368262377052345,10.357904001208098,11.429616730342072,9.21691620566697,2.2127005246751033,268215.43824560684,1.4000000000000001,56894.79729083314,75.18796992481202
6,walk,10.473417610039059,0.44048542144240227,10.482672666348833,12.014802325664807,8.82100557336477,3.1937967523000363,274716.0655745424,1.6,173661.60281572115,85.9598853868195
6,walk,10.431859012972506,0.34234798132384553,10.437472765281647,11.355640884149787,9.38886658260506,1.9667743015447279,272352.0943149903,1.8,73307.35253406937,88.23529411764706
6,walk,10.37924685308969,0.2685304670351777,10.38271857490386,11.182610012061977,9.63609472777841,1.5465152842835668,269502.11251413415,0.8,51248.85330873893,86.95652173913044
6,walk,10.348950511708901,0.2842981040109909,10.352853219068619,11.229458506498217,9.45629563474146,1.7731628717567567,267953.9244389486,0.8,69845.67724848418,81.9672131147541
6,walk,10.303402004343985,0.27012149595679436,10.306940831277172,11.046632743303618,9.29858085745481,1.7480518858488079,265582.5732486214,0.8,57650.117897646654,85.22727272727273
6,walk,10.278407441667174,0.28579756983023497,10.28237847561252,11.15742849135533,9.245600652868797,1.9118278384865324,264318.2677893491,0.8,69916.7202261437,82.19178082191782
6,walk,10.275944054989534,0.2896248681931547,10.280023114396432,10.97191711234761,9.198243948814383,1.7736731635332266,264197.18808131234,2.2,44270.046837373666,80.64516129032258
6,walk,10.283748524249487,0.2537163786249537,10.286876589226964,10.9088555367085,9.339966614148643,1.5688889225598572,264549.5749049644,3.0,46596.326243692405,80.4289544235925
6,walk,10.306737502073377,0.2321238303364479,10.309350021056941,10.97790334480295,9.204406140305,1.77349720449795,265706.74464166694,3.0,30802.772176979786,86.45533141210375
6,walk,10.340587497859827,0.2566572815308758,10.34377089904227,11.014088301239742,9.548852941783945,1.4652353594557965,267483.99102968426,3.0,20090.28004929724,82.41758241758242
6,walk,10.410081734684187,0.2915004286586362,10.414160563084934,11.345871855348355,9.602430469661195,1.7434413856871593,271136.8505842838,1.6,39121.267632279545,88.75739644970413
6,walk,10.424944043023219,0.3745526052529951,10.431667740031095,11.392343558305843,9.31655211762352,2.0757914406823232,272049.22959601367,1.4000000000000001,139978.93173287396,84.50704225352113
6,walk,10.3624176008669,0.2761330884571331,10.366094612606235,11.210077589564355,9.543257160801938,1.666820428762417,268639.79379376,1.6,62732.91065132451,84.26966292134831
6,walk,10.420763140980982,0.4333557041643583,10.429766367847991,11.773807398013842,9.115092078525178,2.658715319488664,271950.0662197327,1.6,182580.92598630404,84.74576271186442
6,walk,10.387328265540422,0.3689766013697852,10.393876936492967,11.73139579626534,9.070256132783795,2.6611396634815456,270081.69442740106,1.8,70631.5725625011,83.79888268156425
6,walk,10.340878700368732,0.4202087621884957,10.34940950341604,12.058816245396676,9.103742451115977,2.9550737942806986,267775.6926734955,1.6,99704.63790723718,84.98583569405099
6,walk,10.29937724724602,0.42000625343532166,10.307934146661621,11.527292760437682,9.038456830235315,2.4888359302023666,265633.7659297816,0.8,164999.0029009938,79.7872340425532
6,walk,10.28924505143514,0.3616645256235209,10.29559675963882,11.186833608559233,8.831300124956877,2.355533483602356,264998.2815927134,2.2,62308.551761538154,87.97653958944281
6,walk,10.250664560192927,0.35712307218651795,10.25688109512476,11.469723728367017,9.033168514361645,2.436555214005372,263009.02449881926,0.8,87472.37792854641,88.23529411764706
6,walk,10.250220362805681,0.39082229959998177,10.257665351292802,11.339951733770441,8.819360017935553,2.520591715834888,263049.24614778225,0.8,82647.40730981003,88.75739644970413
6,walk,10.414018622221128,0.6128563981334443,10.432028881838646,12.58863591327032,8.61941180652732,3.969224106742999,272068.06647878914,1.6,173643.1426269622,84.50704225352113
6,walk,10.401805543616364,0.551671565654905,10.416418691035501,12.033093585018705,9.03913723017152,2.9939563548471853,271254.4458673843,1.0,210782.2495847482,81.30081300813008
6,walk,10.365980440100964,0.3269906547570161,10.371134489712245,11.32064065304896,9.477173665684877,1.8434669873640832,268901.0765092472,1.4000000000000001,86499.48582030945,81.30081300813008
6,walk,10.361329801279926,0.28459049749926263,10.365235868298313,11.157049709533206,9.609165981457227,1.5478837280759787,268595.28651364474,1.4000000000000001,78515.17131549283,82.64462809917356
6,walk,10.286910906002237,0.29379841292855796,10.291103875117775,11.143844036267557,8.87076322504363,2.2730808112239274,264767.04742116027,3.0,33971.54536395981,90.63444108761328
6,walk,10.282477280890292,0.47364778721823614,10.293376099291779,12.084784745476334,8.644067470081016,3.4407172753953184,264883.97880367807,2.8000000000000003,96645.96970912105,77.720207253886
6,walk,10.238576625347063,0.28201940191634794,10.242458417888905,10.960601854386566,9.280279752720128,1.6803221016664374,262269.8861054582,2.2,32818.22114084576,80.4289544235925
6,walk,10.26934292296899,0.3334008059569102,10.27475136947396,11.213759329435694,9.031105693941491,2.182653635494203,263926.2892612675,1.0,56120.25542238266,86.95652173913044
6,walk,10.322864311630706,0.2839620333264124,10.326767634595795,11.130700598974379,9.30269626445515,1.8280043345192283,266605.3244473381,1.4000000000000001,44627.410487411405,86.45533141210375
6,walk,10.32136918667639,0.3237436782198004,10.326443237285163,11.243761531975556,9.285724938340293,1.9580365936352635,266588.5748321812,1.4000000000000001,81254.81439281542,89.55223880597015
6,walk,10.310813080545246,0.27994480092349333,10.314611196059232,11.139883817121058,9.521254142065112,1.6186296750559457,265978.01031467615,3.0,44882.72138986275,80.4289544235925
6,walk,10.300666955257242,0.36741757850655615,10.307215016766332,11.238999601808143,9.077500966941678,2.161498634866465,265596.7035046334,1.4000000000000001,65922.039018428,87.2093023255814
6,walk,10.292706822451366,0.33906535901501345,10.298287870539152,11.33927063756796,9.21961244512981,2.11965819243815,265136.83266123454,0.8,59997.613724162875,85.71428571428572
6,walk,10.245457361394351,0.35435333208787023,10.251580980590159,11.771084223696533,9.105914661529969,2.6651695621665645,262737.28150399466,1.4000000000000001,49884.25549904504,91.46341463414633
6,walk,10.375178687875614,1.037905608910791,10.426943461970803,17.594125201096432,6.265294856545084,11.32883034455135,271802.87489783915,1.4000000000000001,287880.1103750427,87.97653958944281
6,walk,10.287363203772612,0.5323406415262477,10.30112202094179,11.67952442602838,8.626782987963272,3.052741438065107,265282.78722582967,2.8000000000000003,180149.28343032324,90.36144578313252
6,walk,10.25180924432926,0.38620999016806595,10.259078480807032,11.168855346219921,9.260002192854268,1.9088531533656532,263121.7281883948,0.6000000000000001,82034.95464312626,80.0
6,walk,10.43600728767263,0.5771601167232563,10.451948558195841,11.887239573099373,8.686473763787166,3.200765809312207,273108.0716579303,1.2000000000000002,310063.5322102789,85.22727272727273
6,walk,10.36102006477164,0.46483472281211285,10.371437782371572,11.86777660110421,8.946445274668582,2.9213313264356273,268916.8041840114,1.4000000000000001,103263.61653700756,85.9598853868195
6,walk,10.340190050726024,0.436683592442368,10.349403198639903,11.822540675092483,8.986545273390025,2.8359954017024585,267775.3664200447,1.2000000000000002,111399.11833010889,90.36144578313252
6,walk,10.315937308231646,0.26208796571409665,10.31926475932743,11.155686102385413,9.672776270407827,1.4829098319775866,266218.0629327425,2.8000000000000003,61486.68003792664,85.9598853868195
6,walk,10.322422360619157,0.363345937739205,10.328812654578153,11.50164531857819,9.250973920972452,2.2506713976057373,266710.92713343445,2.0,81863.82769418167,89.28571428571428
6,walk,10.278724059515692,0.37645696060977457,10.285612837693291,11.473819955414378,9.22683132768621,2.246988627728168,264484.5786173026,1.6,81165.2051483013,88.49557522123894
6,walk,10.31901709104641,0.4658697518249643,10.3295237807521,11.869788289499493,8.988538340508041,2.881249948991451,266747.6538428078,2.0,171710.96894140553,88.75739644970413
6,walk,10.272012655241882,0.4492869962647419,10.281829703459398,12.122600123123135,9.121701041173884,3.0008990819492514,264290.0551273499,2.2,129333.55891484243,83.56545961002786
6,walk,10.257700818154314,0.5131773517276221,10.270524413519114,11.731199811778847,8.43919589650086,3.292003915277986,263709.1793217304,2.8000000000000003,178905.40699714632,87.71929824561403
6,walk,10.24091631897712,0.4479318305427511,10.25070386461024,11.506819268438678,8.754793982548932,2.7520252858897454,262692.32429983834,2.8000000000000003,150948.52747716958,87.97653958944281
6,walk,10.200266051903847,0.4159491622485047,10.208739982471643,11.307178420750553,8.83748869914155,2.4696897216090026,260545.93007428778,2.8000000000000003,116778.38483649115,84.26966292134831
6,walk,10.253837315594641,0.27847529835753687,10.257616544162667,11.223072742993871,9.284446060904514,1.9386266820893567,263046.7429176992,0.8,36708.54747113961,87.46355685131195
6,walk,10.352682879661481,0.37565691877738083,10.35949344708577,11.507473713606732,9.202875775997844,2.3045979376088876,268297.76120053255,1.4000000000000001,82612.96294507566,84.26966292134831
6,walk,10.344126911247152,0.45020813831218737,10.35391558053488,11.686945215572097,9.149692938005298,2.5372522775667985,268008.91962210735,1.8,90646.0312233677,89.82035928143712
6,walk,10.277203893015486,0.3542714549442449,10.28330578749341,11.225760175278985,9.104198252686839,2.1215619225921465,264365.94479773863,1.2000000000000002,50100.266594269226,85.47008547008548
6,walk,10.21870261775534,0.30863981644293154,10.22336068144909,11.294120308106278,9.181615399275572,2.112504908830706,261292.75905749807,3.2,64586.83492848228,87.2093023255814
6,walk,10.200860286761165,0.3559773250987748,10.207067147719917,11.220741076586766,9.037234428643602,2.1835066479431635,260460.54939515796,2.2,68455.50451100268,86.45533141210375
6,walk,10.19613443684593,0.37746462487807436,10.203116190921898,11.11221467573812,8.888325734932646,2.223888940805473,260258.9500136315,3.0,76113.47048515356,81.52173913043478
6,walk,10.218615731460558,0.3365589683815607,10.224154444142341,11.555827304296704,9.347786654910449,2.2080406493862554,261333.33524418893,2.4000000000000004,51055.455741651334,86.20689655172414
6,walk,10.207780090471378,0.37474207926484154,10.214653681292635,11.158278164572264,8.82586346281206,2.3324147017602037,260847.87457186298,3.0,63311.6528359536,82.41758241758242
6,walk,10.2272249784038,0.3095052065221646,10.231905292483985,10.960528144633372,9.0385448100741,1.9219833345592718,261729.71478590445,3.0,42100.40426764238,88.75739644970413
6,walk,10.232927202148296,0.45846856439751754,10.243188393837022,11.52346877579561,8.373788497961183,3.1496802778344275,262307.27117909363,3.2,136728.4521196335,89.55223880597015
6,walk,10.236869981130692,0.44065365807926565,10.246345933389852,11.592479120762997,9.004612359612851,2.5878667611501456,262469.0124667369,3.0,120237.78473777602,88.23529411764706
6,walk,10.251956178090838,0.5308114336145667,10.265683296850707,12.89423153297533,8.287393952774147,4.606837580201182,263460.633878099,2.6,117574.6253576565,82.87292817679558
6,walk,10.28763213202068,0.5813423867683738,10.304037978911456,12.06264705243355,8.009562744021636,4.053084308411913,265432.9966771242,2.0,156302.94339230444,85.47008547008548
6,walk,10.252992687009343,0.596904746545471,10.270346235556278,11.968108257026817,7.336528552293168,4.631579704733649,263700.02949551254,2.0,285846.2601004033,82.41758241758242
6,walk,10.313238786322895,0.5358980408727052,10.327147045493353,12.675406812006596,8.86685560940878,3.8085512025978154,266624.9152481052,1.4000000000000001,142103.48845048665,92.3076923076923
6,walk,10.331702202445438,0.4301601788359208,10.340649600695322,11.531758017338088,8.582434837642609,2.9493231796954795,267322.58541090076,1.6,129865.84352173896,85.9598853868195
6,walk,10.327890808764733,0.3222846450829703,10.332916064851506,10.939492491802797,9.168239073096366,1.771253418706431,266922.8860081659,0.8,68815.97503974555,81.30081300813008
6,walk,10.365727215394386,0.3987830951788352,10.37339216697149,11.305636444219802,9.175279879013937,2.130356565205865,269018.1626244637,0.8,126834.57488908694,89.02077151335311
6,walk,10.278949850373342,0.55720747881374,10.294035457917674,12.347106579803851,8.542322944747161,3.8047836350566904,264917.91502216586,2.2,208725.85403703208,83.33333333333334
6,walk,10.270799569188005,0.43578325736511203,10.280036715645199,11.35236567668493,9.049307988171583,2.3030576885133467,264197.8871875333,2.0,163364.79155264422,82.64462809917356
6,walk,10.296051256760569,0.5314805617492196,10.30975412319436,11.718822057054336,8.274307432048632,3.444514625005704,265727.5752018078,0.8,154914.04111098463,87.46355685131195
6,walk,10.319074475116436,0.3981182888919625,10.326748413497882,11.669287210774652,9.12167921656965,2.547607994205002,266604.33198920253,1.4000000000000001,67700.01902040085,82.64462809917356
6,walk,10.4566934723449,0.39167052344462266,10.464023261212498,11.568797031701283,9.251367407077714,2.3174296246235695,273739.4570279906,0.8,128555.15234047969,83.10249307479225
6,walk,10.46035109501216,0.40608457281152627,10.468227345129904,11.667307046637141,9.376743533932121,2.2905635127050203,273959.4593733137,0.8,113872.55316689618,81.08108108108108
6,walk,10.395835798733597,0.42120790725261076,10.404361926082862,11.373206483833918,8.686788940269278,2.686417543564641,270626.8677223067,2.4000000000000004,98515.95953745955,86.70520231213874
6,walk,10.401009801578223,0.4883433716181306,10.412463145165518,11.91254237047188,8.543339865818416,3.3692025046534635,271048.4718735755,2.4000000000000004,147257.10050114454,83.56545961002786
6,walk,10.404721227606188,0.46588669263800475,10.415142217675756,11.758954695876225,9.020251642275692,2.738703053600533,271187.9685360296,1.6,177638.23682770325,88.75739644970413
6,walk,10.388845087743935,0.3690605800060324,10.395395783065258,11.171552653063028,8.974725186609502,2.1968274664535254,270160.6337164274,1.6,88662.45982522202,85.47008547008548
6,walk,10.453057422055457,0.3621367086700729,10.459325982459712,11.583186665969114,9.509437019648285,2.073749646320829,273493.750018392,1.6,93201.17469877083,89.28571428571428
6,walk,10.47415177829242,0.3707874891080633,10.480710082978181,11.587324882785742,9.484587409455974,2.1027374733297677,274613.20960860123,1.6,104038.56163147395,85.47008547008548
6,walk,10.460373343119354,0.35672900774979505,10.46645188973695,11.26767760401087,8.979407696153697,2.288269907857174,273866.5379004454,1.6,111092.67644784377,82.64462809917356
6,walk,10.507137707159293,0.37864261335515076,10.513955282279149,11.49801097064823,9.502510547937812,1.9955004227104176,276358.139194414,1.6,118779.6812106259,85.47008547008548
6,walk,10.552370680323142,0.46128390075224407,10.562444068438982,11.805994006246983,9.052829263892141,2.7531647423548424,278913.0617472546,1.6,173183.6731443411,83.10249307479225
6,walk,10.569282871141153,0.5682726759795386,10.584542742647367,12.342367278992448,8.980052803718483,3.3623144752739655,280081.3626773226,0.8,287323.5726699161,83.10249307479225
6,walk,10.441449539627262,0.32616582102294595,10.44654057943245,11.418664739125441,9.735228076367779,1.6834366627576625,272825.52519432217,0.8,116977.01953673482,80.86253369272237
6,walk,10.363394315367259,0.2829092917743229,10.367253608747676,11.288290899718618,9.351136965006855,1.9371539347117626,268699.8684702293,0.8,60210.685606845436,79.15567282321899
6,walk,10.356914620508507,0.26950775299352164,10.360419191888663,11.272195619377438,9.442568663438102,1.8296269559393359,268345.7145791374,0.8,44467.68269037957,79.57559681697613
6,walk,10.408976848162062,0.27006554073182126,10.412478343204661,11.308868356321188,9.502227923330203,1.806640432990985,271049.2631192652,0.8,55298.205516493734,80.0
6,walk,10.4125910278861,0.3364504882023714,10.418023112157762,11.988307047113347,9.461259059634365,2.5270479874789817,271338.01391363324,0.8,60058.147577931944,81.30081300813008
6,walk,10.415136146273166,0.31359739504519074,10.419854362430144,11.641045259436291,9.614685404598028,2.0263598548382635,271433.4123356362,3.2,56229.2557813959,81.52173913043478
6,walk,10.404529246541424,0.3248988234482902,10.409598736931013,11.378562944799334,9.482731807295131,1.895831137504203,270899.36465978937,3.2,86162.46609304921,81.08108108108108
6,walk,10.418812455850228,0.32478154325157194,10.423871346471826,11.687627092584059,9.647625953765141,2.0400011388189174,271642.7346194909,0.8,55168.813018540415,79.15567282321899
6,walk,10.41159630348537,0.31110702760999853,10.416241474464073,11.40394658740977,9.605625542845623,1.7983210445641475,271245.2161358637,0.8,66377.82317014958,82.41758241758242
6,walk,10.46374292225486,0.34359301375556983,10.469380348410152,11.466009757677524,9.496016261771233,1.9699934959062908,274019.81219919166,0.8,78469.5248571871,81.74386920980926
6,walk,10.444392332329377,0.374865644622573,10.451114736401967,11.719570701951824,9.069767459659413,2.6498032422924105,273064.49808359594,0.8,93997.6414358515,81.30081300813008
6,walk,10.30021336829679,0.36931544075976636,10.3068295207433,10.938760757878763,8.726047673399506,2.2127130844792564,265576.83692416386,0.8,68327.39045675214,77.51937984496124
