num_sujeto,actividad,media_a,sd_a,rms_a,maximo_a,minimo_a,rango_a,energia_a,f_dom_a,energia_f_dom_a,ppm_ecg
17,walk,10.337244004594588,0.5843227665174457,10.353738947228997,12.456886191081617,8.373701737179369,4.083184453902248,268106.9753786039,1.3994402239104358,230769.19615970383,87.97653958944281
17,walk,10.368412099063002,0.47639565857315336,10.379346392459976,11.505880010216382,9.014372673242772,2.4915073369736103,269434.8096682144,1.3994402239104358,158971.90778421293,93.75
17,walk,10.486514543907107,0.5882797375576189,10.502995856198643,11.961313062928717,8.144465841536942,3.8168472213917752,275892.61781026993,0.5997600959616154,279396.6937828381,82.64462809917356
17,walk,10.53017710879405,0.6026380861741298,10.547400504128827,13.40717585280839,8.788490771209098,4.618685081599292,278230.3911436371,1.3994402239104358,277818.3774627368,87.97653958944281
17,walk,10.452804541988053,0.5670235730814855,10.468166504721118,11.999186252824835,8.96437812628037,3.0348081265444655,274065.85743638343,1.1995201919232308,323478.3700605254,89.55223880597015
17,walk,10.41626386543132,0.5923116538156041,10.43308419080421,13.01135650759428,8.685544232991695,4.325812274602585,272231.9635767543,0.5997600959616154,267933.7597387233,95.23809523809524
17,walk,10.347991203996338,0.537291699717006,10.361924961212221,11.488173634331403,8.698471287108838,2.7897023472225655,268531.091743384,1.1995201919232308,369970.50055488775,84.98583569405099
17,walk,10.476466465201133,0.5164925382895628,10.489185262709452,11.845969160372396,8.780774358436553,3.065194801935844,275167.5416960783,1.1995201919232308,195454.95050879993,92.3076923076923
17,walk,10.43161010033917,0.6071123488753173,10.44925486886235,12.346903750644907,9.048935484643954,3.2979682660009537,273076.5052134233,1.3994402239104358,240315.26319567868,94.9367088607595
17,walk,10.363024006499883,0.5545447104404857,10.377844835823069,11.972912205431934,8.64230614948452,3.3306060559474133,269356.8582544853,0.5997600959616154,222304.94952237804,88.49557522123894
17,walk,10.499806673066944,0.5439336135902944,10.5138806180013,12.245334856488025,8.922518904510861,3.322815951977164,276464.7558096081,1.3994402239104358,190229.7404465725,87.2093023255814
17,walk,10.466123921372684,0.6421410923491517,10.485796595771289,12.081435957826665,8.65147672985611,3.4299592279705546,274989.7775499698,1.3994402239104358,282365.0110883598,91.46341463414633
17,walk,10.384161699152962,0.5876034900601922,10.400766990936967,12.041373204811148,8.467472664491156,3.5739005403199915,270548.06095340976,1.3994402239104358,310101.174129042,88.75739644970413
17,walk,10.41192682192563,0.5397883802214523,10.425904044185284,11.971212582643945,8.7219676664056,3.2492449162383448,271857.3873215362,0.5997600959616154,172953.69142685243,83.10249307479225
17,walk,10.527785266094412,0.6670475687887405,10.548887958368024,12.042554671896186,8.160383030478265,3.882171641417921,278308.8719326629,1.3994402239104358,301998.071517825,87.97653958944281
17,walk,10.41942041792857,0.6373063387087741,10.43888494122418,11.842135207802375,8.37611488135085,3.4660203264515257,272534.7673591085,1.3994402239104358,336653.900672733,89.28571428571428
17,walk,10.549129611458286,0.7189800948934821,10.573592636654979,12.330856564713725,7.969042444152709,4.361814120561016,279613.95397605695,1.599360255897641,372470.40061382094,89.02077151335311
17,walk,10.7822837394728,1.0753824291490393,10.835756900809102,13.931491698540878,7.87148197880923,6.060009719731648,293651.4826611936,1.3994402239104358,1224935.547436038,85.71428571428572
17,walk,10.606548408357765,0.9812828680124283,10.651826143599484,13.583233204591172,8.12296853794263,5.460264666648543,283766.9618838671,1.3994402239104358,1057523.386352434,99.00990099009901
17,walk,10.625749324305044,0.8862531738732895,10.66263003854655,12.893354631156033,8.16231377768068,4.731040853475353,284342.8900266269,1.3994402239104358,824401.9325097655,95.23809523809524
17,walk,10.614520363565893,0.9319417328662876,10.655337191978598,13.854667186055016,7.820308317271343,6.034358868783673,283954.0628975806,1.3994402239104358,855599.6357944192,87.97653958944281
17,walk,10.53230109710638,0.870566142937372,10.568204614615794,13.82117458496214,8.501506441437524,5.319668143524616,279329.0588897428,1.3994402239104358,796889.0318310495,87.97653958944281
17,walk,10.605454666747052,0.9250860911173362,10.645708562024696,13.539900004329779,7.910691698675032,5.629208305654746,283441.10807970236,1.3994402239104358,905628.2863660376,95.54140127388536
17,walk,10.672315886759275,0.9570614261103448,10.715126071119718,12.86909118923844,7.895764529162454,4.973326660075985,287149.6307266937,1.3994402239104358,662109.2401519596,97.40259740259741
17,walk,10.633652188321562,0.8301893393631058,10.66599726354187,12.217103145488345,7.646765356158307,4.570337789330038,284522.5075623325,0.7996801279488205,711475.3673906227,97.7198697068404
17,walk,10.484953304651363,0.6248967282596886,10.50355109407267,12.170028344472703,8.21862651889934,3.951401825573363,275921.78855007375,0.5997600959616154,301272.9390555665,91.1854103343465
17,walk,10.428232651811046,0.45442534759510017,10.438125122305419,11.725998230752761,8.43415481876508,3.2918434119876814,272495.0946283277,0.5997600959616154,184739.95297336706,89.82035928143712
17,walk,10.401185142574908,0.4406037275679095,10.410509420449054,11.725914480099526,9.002888633659195,2.723025846440331,271055.1446895395,0.7996801279488205,167216.69581457233,95.84664536741214
17,walk,10.38346292086994,0.5611079159108232,10.398606562222458,11.786210793280322,8.389937693552646,3.3962730997276758,270435.6771081758,0.5997600959616154,211990.26418314673,92.3076923076923
17,walk,10.303339029178062,0.38167226420472716,10.31040302904104,11.278638520291823,9.027355581065088,2.2512829392267353,265867.33096376795,0.5997600959616154,124858.25750727527,86.45533141210375
17,walk,10.243230887205652,0.4561361037455461,10.25337778309969,11.557787234263687,8.986428790012177,2.5713584442515103,262934.5216633688,0.5997600959616154,150245.30326733584,89.28571428571428
17,walk,10.40190411306882,0.4328055338529928,10.410900773195326,11.314119422214466,9.061123270808126,2.2529961514063395,271075.52412820695,0.5997600959616154,154319.98745727228,87.97653958944281
17,walk,10.519943528199066,0.5212219720093225,10.532842710071925,11.696127119809024,8.73438862938986,2.9617384904191635,277462.87966334337,1.3994402239104358,217376.94853614294,89.55223880597015
17,walk,10.485861100785554,0.48161396670898826,10.496911083465893,11.545005492697706,9.069511501369442,2.475493991328264,275573.04087776697,0.7996801279488205,212764.51760433085,84.74576271186442
17,walk,10.571208271369118,0.581361622990641,10.587175757248477,12.137150721084126,9.008940582764684,3.1282101383194423,280332.81457768957,0.7996801279488205,314811.70076673094,93.16770186335404
17,walk,10.505687525709876,0.5141196209718126,10.518254783337614,12.23427975535125,8.927556600223223,3.3067231551280276,276694.84290169866,0.7996801279488205,222169.7652861411,102.38907849829351
17,walk,10.507319688026032,0.5469399564760808,10.521539370875677,12.164360367826253,8.407877600887755,3.7564827669384986,276867.67962295027,0.7996801279488205,320294.8556425855,94.04388714733543
17,walk,10.496472056192225,0.5741689442973158,10.512157903482764,11.869162421794746,8.159519131803542,3.709643289991204,276374.16493317566,0.7996801279488205,319650.7980022299,85.71428571428572
17,walk,10.561262783545995,0.6519703590988299,10.581359410496402,12.268154532588527,8.452067878413352,3.816086654175175,280024.882602226,0.5997600959616154,300957.09477293614,95.54140127388536
17,walk,10.449861843754054,0.4457959757318239,10.459362654755283,11.51660737113467,8.53482681172039,2.9817805594142808,273605.0661263674,0.5997600959616154,124101.67997674683,100.67114093959732
17,walk,10.43665674734046,0.47320406823727046,10.447374628057549,11.808211195408633,9.056297768790213,2.7519134266184206,272978.2391840705,0.7996801279488205,231915.39973406965,96.15384615384616
17,walk,10.48812428496163,0.584877171825306,10.504413146154953,12.522218869057713,8.791719830712319,3.7304990383453944,275967.08155832754,0.7996801279488205,280346.3621773824,90.9090909090909
17,walk,10.532554066109833,0.5406014003423637,10.546413047874172,11.99201155427114,8.742880868005724,3.249130686265417,278178.2972691028,0.7996801279488205,233700.71603344398,93.45794392523364
17,walk,10.577799797604307,0.5875365841315832,10.594097874354636,12.62545789854552,8.675592514927338,3.9498653836181816,280699.50933828496,0.7996801279488205,200774.46333591684,90.09009009009009
17,walk,10.439917877840994,0.46359184418991706,10.450201756974709,11.74793823610795,8.94208181894754,2.8058564171604097,273125.99862045463,1.3994402239104358,143999.84206706093,98.36065573770492
17,walk,10.375809536649584,0.43997312925036236,10.385129873800754,11.59102280902134,8.856275963070066,2.734746845951273,269735.1571617678,1.3994402239104358,155320.0516955382,94.9367088607595
17,walk,10.406486541214505,0.4329912779256813,10.415486960130316,11.30123542516019,8.984761728607223,2.3164736965529666,271314.4039102283,0.7996801279488205,136623.37918593234,94.33962264150944
17,walk,10.470455962116482,0.5938272142990638,10.48727504260077,12.206577181938577,8.137538604202268,4.069038577736309,275067.32748571155,0.7996801279488205,198519.4954554206,99.00990099009901
17,walk,10.415381358006465,0.4118880167123265,10.423519210777995,11.534640269033567,9.077057922070313,2.457582346963253,271733.0315963822,1.3994402239104358,117745.09009100433,100.67114093959732
17,walk,10.342507557584899,0.40886769617650653,10.350583004318993,11.237672514908823,8.796679276007339,2.440993238901484,267943.5558917723,0.7996801279488205,146375.7498292977,100.67114093959732
17,walk,10.222861819618204,0.3725633180266035,10.229645727481275,11.371245920782767,8.987926595228105,2.3833193255546625,261718.77492614958,0.5997600959616154,110838.13172766785,91.74311926605505
17,walk,10.372452905703561,0.41868847418122734,10.380896359538124,11.605378660727759,8.821395215967227,2.7839834447605316,269515.2860779072,0.5997600959616154,138824.81385248026,90.63444108761328
17,walk,10.590765077984885,0.5457130093702122,10.604809689580195,12.01686731226072,8.55774867161478,3.45911864064594,281267.43336908723,0.7996801279488205,392549.9688898983,85.9598853868195
17,walk,10.547872315411352,0.5509394410622231,10.562245182004544,12.160021541879955,8.541137281386588,3.618884260493367,279014.11923523026,0.7996801279488205,337686.61024198757,89.02077151335311
17,walk,10.461573560656994,0.513677877448972,10.474172082939765,11.525964774803924,8.560485520094153,2.9654792547097717,274380.4103384098,0.5997600959616154,153487.73072629748,92.3076923076923
17,walk,10.636232644098413,0.680074794987681,10.657943594307593,12.120969176963483,8.050573330103663,4.070395846859819,284092.9959102651,0.7996801279488205,461971.54450701823,94.04388714733543
17,walk,10.538697678603315,0.6152900093931795,10.556636736408455,11.944353758008903,8.531424800312372,3.412928957696531,278717.8905404059,0.5997600959616154,247687.18010598677,89.02077151335311
17,walk,10.369780855842336,0.4417118275313521,10.379180426423122,11.805805370825382,9.236093571247109,2.5697117995782737,269426.1931969364,0.5997600959616154,187669.21557047678,92.02453987730061
17,walk,10.346024405139376,0.3888458005157258,10.353326112514672,11.698995968828024,9.219469020289035,2.4795269485389895,268085.5953417875,0.5997600959616154,156802.70902953303,99.00990099009901
17,walk,10.395403285212668,0.3607965044567917,10.401660037273427,11.302148349204213,9.21314452150256,2.089003827701653,270594.5233590586,0.7996801279488205,142880.68902878897,78.74015748031496
17,walk,10.498863364725759,0.42060620469068843,10.507281798594128,11.444878733024355,9.01666480093702,2.428213932087335,276117.8299584637,0.7996801279488205,216359.0219044547,88.49557522123894
17,walk,10.49062910293744,0.35818010445074494,10.496739525488193,11.396376625938906,9.001007217840229,2.395369408098677,275564.03320553125,0.5997600959616154,107026.22061845339,88.23529411764706
17,walk,10.499029747740323,0.4016368820029551,10.50670611228119,11.300940304510554,8.8174204214573,2.4835198830532548,276087.57419794716,0.7996801279488205,134274.62226556317,87.2093023255814
17,walk,10.446505868674041,0.40165188406082264,10.454221376856239,11.35692271091769,9.154567594009857,2.2023551169078335,273336.1522353912,0.7996801279488205,129956.40836659388,89.28571428571428
17,walk,10.394025101094428,0.5883795366651863,10.410658473916241,12.336948411134886,8.857196277140124,3.4797521339947615,271062.9064611706,0.7996801279488205,302052.57250867743,95.54140127388536
17,walk,10.443493215429786,0.5067919155904211,10.455777632117814,11.91290587072643,8.948394020073334,2.9645118506530963,273417.5380166302,0.7996801279488205,245389.97781270597,100.67114093959732
17,walk,10.447630719331949,0.4350054570911892,10.45667928807197,11.541199190594433,8.6155602943406,2.925638896253833,273464.69647571683,0.5997600959616154,98879.88297711722,98.03921568627452
17,walk,10.426781654348414,0.3607474906631259,10.43301789439611,12.435684034666004,9.288870902257456,3.146813132408548,272228.50382435846,0.7996801279488205,138814.493117412,100.0
17,walk,10.443640211391418,0.38849308466971055,10.450860605482015,11.591401993979755,9.271701278197071,2.319700715782684,273160.438975435,0.7996801279488205,112615.11805247414,97.7198697068404
17,walk,10.402892493038724,0.36738653848742936,10.40937515525417,11.333386972124092,9.100785399909487,2.2326015722146053,270996.0828981797,1.3994402239104358,90813.20573490749,103.09278350515464
17,walk,10.462798737364048,0.4234255821638681,10.471359747196296,11.429805840026884,9.154976384426512,2.274829455600372,274233.0867629624,1.599360255897641,167465.7272523336,91.74311926605505
17,walk,10.51298392694364,0.5414432123415459,10.526911920546887,12.047721994744773,8.666228041974477,3.3814939527702954,277150.50233196333,0.7996801279488205,272106.9335136063,97.40259740259741
17,walk,10.529717922973411,0.5289015808963355,10.542987459427678,12.524366189801187,8.555489219728017,3.96887697007317,277997.6160086928,0.7996801279488205,246049.41027843492,97.7198697068404
17,walk,10.370282170768565,0.4129952574388456,10.378499370586953,11.432336494823382,8.45961049287374,2.972726001949642,269390.83621236973,1.3994402239104358,99580.74529972514,91.74311926605505
17,walk,10.300344325889716,0.40958702457125373,10.30848134716285,11.233089612506994,8.911085844684095,2.322003767822899,265768.23399969586,0.5997600959616154,136227.42782125238,94.33962264150944
17,walk,10.35535721218088,0.412645284008814,10.363572310697814,11.61202707939808,9.299992150301678,2.312034929096402,268616.48122869513,0.7996801279488205,151602.40663944706,94.9367088607595
17,walk,10.326858854240925,0.46667682714739156,10.337393964454396,11.475834192253643,8.279787690293336,3.196046501960307,267261.14665482176,1.3994402239104358,118282.0578715979,96.7741935483871
17,walk,10.34356868882837,0.3614737629541432,10.349880398217175,11.169446268370672,9.171140563543432,1.9983057048272403,267907.1806677577,1.1995201919232308,88149.67754900506,96.7741935483871
17,walk,10.426105063840074,0.5293144359382125,10.439527218683098,11.995718169977236,8.877656103938047,3.1180620660391885,272568.3051026128,0.7996801279488205,236565.09194721968,93.16770186335404
17,walk,10.308910657325983,0.4444037496757323,10.318481219014965,11.571848239798072,8.573480070100231,2.998368169697841,266284.1077225785,2.7988804478208715,128646.98960696976,99.66777408637874
17,walk,10.263041352673982,0.332484962693489,10.268423435771124,11.274801023003349,8.79257414728372,2.482226875719629,263706.74016059045,0.5997600959616154,72992.03239770199,94.9367088607595
17,walk,10.299254613083566,0.34847217168905703,10.305145796438035,11.317283767167273,9.323361539378094,1.993922227789179,265596.2707444971,0.5997600959616154,63456.496172165665,96.15384615384616
17,walk,10.29833108373558,0.4456272927937864,10.307964270048874,11.4019833940821,8.325836110630929,3.0761472834511707,265741.5726089031,1.3994402239104358,90612.37681705954,87.71929824561403
17,walk,10.278511792777154,0.34071387662468144,10.284155006813718,11.330865224691191,8.991607860669683,2.339257364021508,264515.3743546333,0.7996801279488205,62160.42069295048,95.54140127388536
17,walk,10.370250143632619,0.42568998736344776,10.37898008240935,11.524626635107367,8.913621534222068,2.611005100885299,269415.79210517614,0.7996801279488205,142515.42287142138,96.15384615384616
17,walk,10.37761567870605,0.38762653998324986,10.384849610452829,11.642133647601057,9.258630158069373,2.383503489531684,269720.59868073737,0.5997600959616154,69249.96002396921,91.1854103343465
17,walk,10.379579460085198,0.40960169480623165,10.387654992057849,11.841527497109258,9.10932299444934,2.7322045026599184,269866.34396129486,0.7996801279488205,95663.11389247235,89.55223880597015
17,walk,10.327886533025465,0.4125467143534654,10.336119532004082,11.715990011666577,9.393307361775927,2.32268264989065,267195.2528166706,0.7996801279488205,137675.28941583633,99.66777408637874
17,walk,10.259818554714656,0.45501000183785156,10.26989912788393,11.836323327034503,8.793710728373958,3.0426125986605452,263782.54107037466,1.3994402239104358,97595.30201643778,101.69491525423729
17,walk,10.183047729420503,0.3373249876547635,10.188631100883585,11.791200186254464,9.127551347710925,2.663648838543539,259624.31747844053,0.5997600959616154,62991.13609975497,92.02453987730061
17,walk,10.165271539544902,0.29130940926755,10.169443087687396,11.068679251130535,9.234372026409611,1.8343072247209236,258647.34935699613,0.5997600959616154,64049.837108364976,93.45794392523364
17,walk,10.212335417816778,0.33858056039283746,10.21794429645646,11.26719679065772,9.048733884843244,2.2184629058144765,261120.3704993633,0.5997600959616154,110415.3933783793,93.75
17,walk,10.252647953552561,0.4352187968612308,10.261877495115636,11.723425739238543,8.897753407314687,2.8256723319238564,263370.63044162665,0.7996801279488205,88669.58109399554,94.9367088607595
17,walk,10.256506181219802,0.47301671399456874,10.267403488466712,11.686650478948772,8.358668487199944,3.3279819917488282,263654.35556184105,2.5989604158336665,128318.85098796549,93.75
17,walk,10.2704164145607,0.603348359256196,10.288116300743267,12.657119524659588,8.098264389813185,4.558855134846404,264719.18788106594,2.5989604158336665,150469.0508896755,92.5925925925926
17,walk,10.295448121277596,0.39651608048766535,10.303077897169796,11.638744063988938,9.143594044481388,2.49515001950755,265489.6888020271,0.7996801279488205,125422.88597096689,94.6372239747634
17,walk,10.320205467172999,0.36880189252396833,10.326790466375117,11.25582140860147,9.111967478090929,2.1438539305105415,266713.14594237646,0.5997600959616154,106983.5203389997,89.28571428571428
17,walk,10.241384417302122,0.436173876280419,10.250664679164737,11.552431946668179,8.759074507388773,2.793357439279406,262795.3920380535,0.5997600959616154,108560.91761404759,91.46341463414633
17,walk,10.164773522886296,0.35338891646200904,10.170912179560464,11.17161226194246,8.973723100743378,2.1978891611990825,258722.0838653928,0.5997600959616154,133132.84768493965,91.1854103343465
17,walk,10.203692576060638,0.38867140307305115,10.211089424948677,11.219510438529163,9.061651188042918,2.1578592504862453,260770.13445799102,0.7996801279488205,113513.46239287079,88.75739644970413
17,walk,10.16249397524214,0.40853983233505786,10.1706991822693,10.974416634419923,8.678334665987586,2.296081968432336,258711.2477623897,1.1995201919232308,111061.46815373404,103.44827586206897
17,walk,10.230923801133372,0.4304576655195858,10.239971754771414,11.417292188076905,8.913670177963292,2.503622010113613,262247.41086782934,0.5997600959616154,130836.13938917364,88.23529411764706
17,walk,10.290303817037104,0.38600934262361747,10.29753836031054,11.331815449561468,9.052873688318325,2.278941761243143,265204.28000144975,0.5997600959616154,96189.9618998585,89.02077151335311
17,walk,10.2729001171209,0.36296697624700935,10.279307814448313,11.177396484576036,9.077040358452596,2.1003561261234402,264160.42286044534,0.6000000000000001,81352.3742816104,97.0873786407767
17,walk,10.314288358423047,0.4636468244642708,10.324699837340836,12.311271502008763,9.208570315907972,3.1027011861007914,266498.5668279647,2.8000000000000003,112760.51600555252,99.66777408637874
17,walk,10.320886709707183,0.3800363687141266,10.327878404837033,11.208434783400888,9.154187311895493,2.054247471505395,266662.6808627479,1.4000000000000001,70964.16362618023,97.40259740259741
17,walk,10.298395146958251,0.4407500985958241,10.307818660999317,11.638714957191489,9.095353731544611,2.543361225646878,265627.81387011433,0.6000000000000001,115539.49358446566,99.00990099009901
17,walk,10.33230695958337,0.41745296851978775,10.340733261291897,12.327330071466422,9.251321349781929,3.0760087216844934,267326.9109529714,0.8,119454.49981019982,96.46302250803859
17,walk,10.349031919731082,0.36312441998882516,10.35539802597019,11.598200867663355,9.228686996527921,2.3695138711354335,268085.6706906683,0.8,104473.35060287725,98.36065573770492
17,walk,10.415187235625806,0.4327790733761898,10.424171332072614,11.388980252973166,8.604502439201223,2.784477813771943,271658.36990101135,0.8,128984.81508985253,97.7198697068404
17,walk,10.435940381266931,0.4400327600737207,10.445209572802446,11.403623985427048,8.603682505012207,2.799941480414841,272756.00754940964,0.8,139226.76892042713,102.73972602739727
17,walk,10.504318691097058,0.5647379072296818,10.519482520372932,12.294471215058195,8.819281107027152,3.4751901080310432,276648.78124107915,0.8,264312.5967743591,84.50704225352113
17,walk,10.398884732430856,0.4868916934673417,10.410272444760638,12.149298397471378,9.146127155412342,3.003171242059036,270934.43093535653,1.4000000000000001,133103.6691502685,98.36065573770492
17,walk,10.297743342259553,0.3734938410669626,10.304511623231162,11.282435950885098,9.005783368515097,2.2766525823700015,265457.39948326536,2.6,70908.73710388543,104.16666666666667
17,walk,10.26907500993498,0.2978667960290145,10.273392365620833,11.061836564920217,9.272526417573483,1.7893101473467343,263856.476744991,0.6000000000000001,50723.74720960427,89.02077151335311
17,walk,10.238139424584606,0.3095250259238894,10.242815350117862,10.905179184058248,9.30534835381743,1.5998308302408173,262288.16574152524,0.6000000000000001,70964.22340685614,84.26966292134831
17,walk,10.284070210922792,0.3685645517626336,10.290669832235121,11.287304681603523,9.135794648794366,2.1515100328091563,264744.71399018506,0.6000000000000001,67236.79879516366,97.0873786407767
17,walk,10.301769231536687,0.4927690845701791,10.313543209876801,12.39844057998449,8.231745969467813,4.166694610516677,265922.9338549897,0.8,67832.73057522587,95.23809523809524
17,walk,10.25597857880527,0.3556302174384649,10.262140072681097,11.454586170480226,9.282608428847377,2.1719777416328494,263278.797178318,0.6000000000000001,74807.98496851152,96.15384615384616
17,walk,10.203985399340743,0.34061454935142493,10.209666492784201,11.015471666753129,9.105084444711608,1.9103872220415212,260593.2247347011,3.6,58560.969956400084,95.23809523809524
17,walk,10.221319946679703,0.37741267064274553,10.228282592900163,12.002695228592378,8.706933411959458,3.29576181663292,261544.41200056122,0.8,77691.26372776262,94.6372239747634
17,walk,10.201955208805364,0.3376501505323424,10.20753898369121,11.209377054851029,9.021060412599253,2.1883166422517757,260484.63025893943,2.6,49921.13363899719,96.15384615384616
17,walk,10.242392985446033,0.43816897442667896,10.251757377232655,12.453218994408159,9.088996172242398,3.364222822165761,262746.32330411044,0.8,70803.56829412274,93.75
17,walk,10.268305433598394,0.3890757119540473,10.275671064963834,11.50312828731869,9.204196361213082,2.298931926105608,263973.5395883375,0.6000000000000001,88093.01682567503,92.87925696594426
17,walk,10.273612932485557,0.35264711690925643,10.279661129220326,10.967136997040699,8.897543144367392,2.0695938526733073,264178.58232900826,2.8000000000000003,79934.0380618146,97.0873786407767
17,walk,10.275044501979647,0.37926891034144106,10.28203904320788,11.841176707569185,9.051623742796185,2.7895529647729997,264300.817215128,0.8,114456.28555339384,92.5925925925926
17,walk,10.273009493370738,0.34396650256926237,10.27876401522056,11.491614196186703,9.17103840445824,2.320575791728462,264132.4742014827,0.6000000000000001,74358.60004670123,97.0873786407767
17,walk,10.34071828634594,0.33506698007360447,10.346143225895943,11.719124824438335,9.175922038624133,2.543202785814202,267606.69912688126,3.6,62610.668611284265,96.46302250803859
17,walk,10.399254161616087,0.3898917193643948,10.4065576375907,12.184513162144997,9.11009380750967,3.0744193546353262,270741.10466124327,0.8,53953.54574452444,95.54140127388536
17,walk,10.336405204832367,0.2911900749071322,10.340504354312035,11.2947516648612,9.403422623043944,1.8913290418172561,267315.0757538654,0.6000000000000001,46872.75921812506,98.6842105263158
17,walk,10.286855308157913,0.408757552086243,10.29497003561786,11.2865357433849,9.045728094029538,2.240807649355361,264966.020085674,0.6000000000000001,87315.1710407894,99.33774834437087
17,walk,10.35813892640646,0.3965489282802425,10.365723813165966,11.534668725328775,8.957012813045175,2.5776559122836,268620.57542708993,0.6000000000000001,89334.17870086596,98.03921568627452
17,walk,10.35993469097587,0.4057158388468213,10.367872795373199,11.568936685826705,8.779415500999724,2.789521184826981,268731.9657525992,0.8,66654.42848708062,96.15384615384616
17,walk,10.30951389356771,0.33151423983055495,10.314840495722635,11.396080405603609,9.239840746381196,2.156239659222413,265989.8361304989,0.6000000000000001,56822.93648968153,93.75
17,walk,10.326617792693607,0.38680634739229164,10.333856702078803,11.384841934179732,9.017740291452442,2.36710164272729,266971.4858477475,0.8,97560.44837522258,103.09278350515464
17,walk,10.28276071055972,0.3858374222815454,10.289994110729943,11.376060387399992,8.387422659677682,2.9886377277223097,264709.9469971423,2.8000000000000003,57701.98760876185,100.33444816053512
17,walk,10.298773204481702,0.37279281145156185,10.305515436300512,12.04827364296764,9.30810050575347,2.7401731372141693,265509.12101957033,2.8000000000000003,61711.72675894039,100.33444816053512
17,walk,10.279498590610194,0.3970475162250697,10.287160684358216,11.415844758732806,8.448832285044636,2.96701247368817,264564.1873645135,3.6,58823.128043926205,96.7741935483871
17,walk,10.245649117858141,0.3605143288246052,10.251987340965782,11.638959094247559,8.782001555102191,2.856957539145368,262758.1110983066,0.8,56696.609915291454,99.33774834437087
17,walk,10.242213978710115,0.33875651704984205,10.247812315862227,11.68548933967174,8.997925988625184,2.687563351046556,262544.1431528438,1.4000000000000001,46940.173550403444,94.33962264150944
17,walk,10.25674699472918,0.31077751514701046,10.261452282437483,11.184012622855997,9.175047687441845,2.008964935414152,263243.5073618536,0.6000000000000001,53395.53936158073,96.7741935483871
17,walk,10.26183491858347,0.2987444274451802,10.266180810306011,10.966366489397586,9.398598507664355,1.5677679817332315,263486.17107473843,0.8,68813.07471819472,97.0873786407767
17,walk,10.24591450126004,0.35047964590472963,10.251904740824088,11.225137623255518,8.919850006518287,2.305287616737232,262753.8770373285,0.8,63144.59445376134,96.15384615384616
17,walk,10.213841006854354,0.30030235102639813,10.21825295942172,10.998856835789127,8.99149960132163,2.007357234467497,261031.73385682685,2.8000000000000003,47615.78403441983,96.46302250803859
17,walk,10.250355803095772,0.33424916875109395,10.255801865669367,11.286976584240817,9.252531193780694,2.0344453904601227,262953.67976966815,0.8,49400.69425659097,95.23809523809524
17,walk,10.272624709742225,0.3401018697209449,10.278250894061765,11.275105546769176,9.132349895917892,2.1427556508512833,264106.10360320366,2.2,39716.5230572341,102.73972602739727
17,walk,10.304676241425977,0.45787430064026147,10.314839671863334,12.231963235869841,9.057813650834715,3.174149585035126,265989.79364061425,2.2,101252.80268607356,83.33333333333334
17,walk,10.296693987460573,0.3731464164342296,10.30345037471454,11.650611291199382,9.294646766526004,2.3559645246733787,265402.72406051296,0.8,84315.79132271039,92.5925925925926
17,walk,10.315203423207404,0.44498510710419925,10.324793179671738,11.722335203193797,8.427649579891677,3.2946856233021204,266503.38550749014,2.6,92837.0398968857,92.3076923076923
17,walk,10.268078482198982,0.36193100231379066,10.274452655466053,11.363976353958632,9.024655986757537,2.339320367201095,263910.9434235336,2.6,62011.3488046918,98.36065573770492
17,walk,10.265454789442627,0.30287780172486034,10.269920170229327,11.247525228052343,9.21032683155923,2.037198396493112,263678.1507572079,0.8,47299.80186952009,99.00990099009901
17,walk,10.252918854432584,0.29100299895004605,10.257046061507133,11.145262281655272,9.191297551781265,1.9539647298740075,263017.4847696974,0.6000000000000001,34960.64451404361,92.87925696594426
17,walk,10.24403841370098,0.3944427755723283,10.251626499758036,11.685756941971725,8.85932766917176,2.826429272799965,262739.61472635303,3.2,86374.19809182183,98.36065573770492
17,walk,10.246420679347619,0.34285091037380405,10.252152772281924,11.49264437681331,9.342677139187021,2.1499672376262886,262766.5911655199,2.8000000000000003,41534.31124946161,83.79888268156425
17,walk,10.25729916972467,0.3111129668127219,10.262014364579802,11.044612577254778,9.2016202868579,1.8429922903968787,263272.34704710543,1.2000000000000002,50204.86222430482,84.26966292134831
17,walk,10.312442130246563,0.4054391355192416,10.320405894631172,11.356152033262967,8.770385843188047,2.5857661900749207,266276.94457484456,1.4000000000000001,121416.00842582539,87.71929824561403
17,walk,10.418771910424397,0.6411857602150618,10.438475121054767,12.959757658801227,8.728216793571022,4.231540865230205,272404.40713219834,0.8,433897.0155988756,91.46341463414633
17,walk,10.448658914372398,0.5429555989314205,10.462750879715706,12.010601827604406,8.934139958254727,3.0764618693496786,273672.88992747944,0.8,363286.79587600054,92.5925925925926
17,walk,10.370804712554385,0.579400646864377,10.386970742881836,11.85729093936735,8.477719913397394,3.3795710259699554,269722.9030337081,1.4000000000000001,409547.1064616811,95.84664536741214
17,walk,10.35906084987612,0.5628047921593008,10.374331989377437,12.051677152726139,8.247340482637092,3.8043366700890466,269066.91056455,1.4000000000000001,313345.85917803296,97.0873786407767
17,walk,10.355456785334194,0.32392777800529104,10.36051989364459,11.100027058840302,9.005791669945022,2.09423538889528,268350.93116651324,1.4000000000000001,77933.88217819175,100.67114093959732
17,walk,10.380070611724909,0.4302280873835731,10.388979164147264,11.609569349299045,8.729846948102187,2.879722401196858,269827.2201827149,1.4000000000000001,139685.04336010246,92.5925925925926
17,walk,10.420548053937765,0.48514800975360767,10.431830912565514,11.550431170954043,8.60790231251833,2.942528858435713,272057.7404708937,0.6000000000000001,123062.63201928894,99.00990099009901
17,walk,10.414182753440429,0.6113640038059124,10.432105197937164,12.285593444729043,8.198422532216927,4.087170912512116,272072.047152069,1.2000000000000002,159413.73353454785,99.00990099009901
17,walk,10.285251704580928,0.4019913218625968,10.29310133101917,11.637833545161538,9.091653466807891,2.546180078353647,264869.8375265715,0.6000000000000001,76010.92335488918,92.5925925925926
17,walk,10.387744530897258,0.4180936575189641,10.396151635327415,11.983547795663943,8.950333964972488,3.033213830691455,270199.92206180224,1.2000000000000002,101516.78331280274,90.09009009009009
17,walk,10.297774867145959,0.30784491043575357,10.302373405963728,11.030155839712673,8.984640078610727,2.045515761101946,265347.2444897716,3.8000000000000003,35186.5218023557,100.33444816053512
17,walk,10.340759147114131,0.432476299070084,10.349795199596088,11.87462071470435,8.950218408550882,2.9244023061534676,267795.65168395557,1.4000000000000001,70752.24516534418,102.38907849829351
17,walk,10.284269519192778,0.39583493358299027,10.291881371446351,11.43407166306086,8.841319812617144,2.592751850443717,264807.0554098111,1.2000000000000002,88493.94921798061,92.5925925925926
17,walk,10.26629087140441,0.3273844029935888,10.271507480958483,11.195422487537996,9.095184968240053,2.1002375192979432,263759.6648284652,0.6000000000000001,41166.408958715685,103.09278350515464
17,walk,10.273092011085406,0.2934825268427404,10.27728159626812,11.065344915962864,9.241559177250316,1.823785738712548,264056.29252247844,0.6000000000000001,32493.378818503334,104.16666666666667
17,walk,10.264548295030623,0.27297916867143873,10.268176056169569,11.086917341316562,9.184937043710383,1.9019802976061797,263588.59880123514,1.4000000000000001,32635.72635472062,93.16770186335404
17,walk,10.241775139982215,0.27126778701831217,10.245365527678677,11.138637149620227,9.301882150343088,1.8367549992771384,262418.78698936646,2.6,41002.55821350601,90.9090909090909
17,walk,10.242858225221356,0.2620570063974131,10.246208617192844,11.103571686133797,9.424625030730484,1.6789466554033137,262461.9775675922,0.6000000000000001,52879.66155220852,92.87925696594426
17,walk,10.265445588908477,0.2528388552317609,10.26855759367209,10.941338980243133,9.371749807593078,1.5695891726500548,263608.18763640185,0.6000000000000001,36969.16404708004,90.63444108761328
17,walk,10.343947604187044,0.48393329605493424,10.355257109151054,12.481174766169683,9.240274893524118,3.2408998726455653,268078.37449155864,1.4000000000000001,107154.40490641483,92.87925696594426
17,walk,10.33620961969698,0.2903900971471567,10.340286358717252,11.571922095594516,9.64025862236749,1.931663473227026,267303.8049506852,0.6000000000000001,42730.52057034466,87.71929824561403
17,walk,10.374603863320916,0.35813235886592953,10.380780934196887,11.399366576333975,9.225386482832883,2.1739800935010916,269401.532009464,0.6000000000000001,53431.98949944364,96.7741935483871
17,walk,10.3741994182275,0.2757642222582235,10.377862451250111,11.086161553170477,9.488031171559154,1.5981303816113233,269250.0726426674,3.8000000000000003,39400.53266321538,93.75
17,walk,10.408750280232123,0.45320802935946025,10.418608244631384,12.052101568006588,8.762943980360903,3.2891575876456844,271368.49438775267,0.6000000000000001,65328.24961559805,91.74311926605505
17,walk,10.33451755773997,0.41017173562555126,10.3426508549598,11.258017577058663,8.679722383063467,2.5782951939951957,267426.0667690017,1.2000000000000002,100820.66044333203,93.16770186335404
17,walk,10.269439121707295,0.45510282877888647,10.279514366534102,11.604872678269922,8.739385296766025,2.865487381503897,264171.0390294525,1.2000000000000002,107547.2590131458,93.75
17,walk,10.305024526390616,0.3265090571758313,10.310193791130418,11.219711713403488,9.113225202957233,2.1064865104462545,265750.24002666055,1.2000000000000002,64319.864273281935,98.03921568627452
17,walk,10.381046221531406,0.4880988863227377,10.39251008564302,12.152760914535735,8.54486172467507,3.6078991898606656,270010.66470047965,1.8,103083.42066076212,93.75
17,walk,10.368915834021996,0.4860375610870795,10.380296411510377,12.10833042388332,8.929651117953881,3.178679305929439,269376.3839770381,0.6000000000000001,147906.2433016942,92.87925696594426
17,walk,10.375827732201476,0.5243481728690497,10.389063103009327,11.705929658078412,8.687667144690787,3.0182625133876257,269831.58039577445,0.6000000000000001,176480.18007108194,94.04388714733543
17,walk,10.278656628850348,0.4202970119591831,10.287242634070594,11.2978248017673,9.135849539806301,2.1619752619609987,264568.40253059927,1.2000000000000002,103130.2146139072,94.9367088607595
17,walk,10.218828821514192,0.39012327328030455,10.226269983395547,11.486013068145335,9.137109689374181,2.348903378771153,261441.49443324184,0.6000000000000001,88742.64196535305,97.7198697068404
17,walk,10.24791006909731,0.5067873936452783,10.2604284273747,11.57659207069524,8.627084039217802,2.9495080314774373,263190.9787831971,1.2000000000000002,191306.37299076834,92.02453987730061
17,walk,10.272778173797146,0.35694242868882803,10.278975062830066,11.269078365317261,8.839476666772711,2.42960169854455,264143.3208557059,2.6,55650.90377963465,87.46355685131195
17,walk,10.240743966461432,0.3615416560302149,10.247121404117044,11.177218754479266,8.869347092037756,2.30787166244151,262508.7426767841,0.8,63460.9845550154,94.33962264150944
17,walk,10.229270669160734,0.39398611593448474,10.236852123210406,11.361748581662638,8.905625548378296,2.4561230332843422,261982.85348119348,1.4000000000000001,68308.57475902297,99.00990099009901
17,walk,10.23946881906835,0.39957271115141485,10.24725895958667,11.340533447570213,8.869919859992072,2.470613587578141,262515.7904620732,1.4000000000000001,90182.13389129772,94.33962264150944
